temperature,magnetization
2.5,0.9776394545454546
2.52,0.9766343571428572
2.54,0.9755570833333334
2.56,0.9746337692307694
2.58,0.9732790833333332
2.6,0.9720706363636363
2.62,0.9710380833333333
2.64,0.9695484615384617
2.66,0.9680922500000001
2.68,0.9668435
2.7,0.9652991428571428
2.72,0.9640226923076924
2.74,0.9622726000000001
2.76,0.9608549333333334
2.78,0.9588802307692308
2.8,0.9573818333333334
2.82,0.9555358000000002
2.84,0.9537011818181818
2.86,0.9516954166666668
2.88,0.9495089999999999
2.9,0.9476589999999998
2.92,0.9454722727272727
2.94,0.9432215384615386
2.96,0.9406566153846154
2.98,0.9381864545454545
3.0,0.9353873571428573
3.02,0.9333014615384616
3.04,0.93032175
3.06,0.9277569230769231
3.08,0.9244424285714288
3.1,0.92099375
3.12,0.9184241818181819
3.14,0.9144339166666667
3.16,0.9111650909090911
3.18,0.9067288
3.2,0.9027464166666666
3.22,0.8980954999999998
3.24,0.893486153846154
3.26,0.8894964999999999
3.28,0.8833333636363636
3.3,0.8795016
3.32,0.8736208181818181
3.34,0.8661996000000001
3.36,0.859689076923077
3.38,0.853943642857143
3.4,0.8465300000000001
3.42,0.841841
3.44,0.8317055
3.46,0.8216556153846154
3.48,0.8127309090909091
3.5,0.7997347777777778
3.52,0.7864781818181819
3.54,0.7738814545454545
3.56,0.7533335833333333
3.58,0.7323256363636365
3.6,0.7246347692307692
3.62,0.6914904285714286
3.64,0.6569836923076924
3.66,0.6387000714285714
3.68,0.6027129333333333
3.7,0.5038802727272726
3.72,0.48916621428571433
3.74,0.43871699999999997
3.76,0.2440967
3.78,0.1931603333333333
3.8,0.2072516923076923
3.82,0.18415436363636362
3.84,0.1556297923076923
3.86,0.13666518181818182
3.88,0.10495766153846153
3.9,0.10088791818181818
3.92,0.08004574545454546
3.94,0.07421045
3.96,0.06775653333333333
3.98,0.05681064166666666
4.0,0.05870581538461538
4.02,0.054876169230769226
4.04,0.037620909090909094
4.06,0.05292111818181819
4.08,0.04613735384615385
4.1,0.029039486666666666
4.12,0.028720283333333332
4.14,0.03487155333333333
4.16,0.029701550000000004
4.18,0.028907783333333336
4.2,0.02447192727272727
4.22,0.03128317142857142
4.24,0.024274999999999998
4.26,0.019711666666666666
4.28,0.019508377777777773
4.3,0.01741507142857143
4.32,0.015685183333333335
4.34,0.017529299999999994
4.36,0.015166349999999999
4.38,0.01736548
4.4,0.015580290909090909
4.42,0.016737778571428573
4.44,0.014610792857142856
4.46,0.008919631666666667
4.48,0.011661659166666666
4.5,0.011827529285714285
4.52,0.01190526090909091
4.54,0.014986220000000001
4.56,0.013091976923076924
4.58,0.011444139999999998
4.6,0.011702314285714286
4.62,0.006986749285714286
4.64,0.010962733076923074
4.66,0.009666668181818182
4.68,0.011083559000000002
4.7,0.009101335999999998
4.72,0.007690280833333333
4.74,0.010412217272727271
4.76,0.010476941666666665
4.78,0.011354596000000002
4.8,0.01062293090909091
4.82,0.008559993333333333
4.84,0.0084500025
4.86,0.005449074166666667
4.88,0.008854360000000002
4.9,0.010886410000000001
4.92,0.00951562923076923
4.94,0.008846243076923077
4.96,0.008137265384615384
4.98,0.006822136923076925
5.0,0.007099011111111112
5.02,0.006003248461538461
5.04,0.005592563846153847
5.06,0.007728384545454547
5.08,0.006454074444444444
5.1,0.008633928181818183
5.12,0.006194016923076923
5.14,0.007029907499999999
5.16,0.005702735384615385
5.18,0.004479401538461539
5.2,0.006348990909090909
5.22,0.00550596
5.24,0.005119166666666667
5.26,0.005184956153846154
5.28,0.005480342307692309
5.3,0.003983534545454546
5.32,0.0038337966666666667
5.34,0.005098555
5.36,0.0035725638461538466
5.38,0.003832905384615384
5.4,0.004416074000000001
5.42,0.0037741099999999994
5.44,0.0049254649999999995
5.46,0.004941110909090909
5.48,0.004292020909090908
5.5,0.004248798333333333
5.52,0.003198975384615385
5.54,0.003866112
5.56,0.00374321
5.58,0.004728283636363636
5.6,0.004513650714285714
5.62,0.002686573333333333
5.64,0.0034446291666666664
5.66,0.0038218172727272725
5.68,0.004339393636363637
5.7,0.003184999166666667
5.72,0.004040833333333334
5.74,0.004226759166666667
5.76,0.0031075559999999996
5.78,0.0038670375
5.8,0.0035807684615384613
5.82,0.003020513076923077
5.84,0.002684141818181818
5.86,0.003579144615384615
5.88,0.0037217591666666664
5.9,0.0039802783333333334
5.92,0.0026665654545454547
5.94,0.0033424991666666667
5.96,0.003499524285714286
5.98,0.0031384446666666665
6.0,0.003399916153846153
6.02,0.003160605454545454
6.04,0.0028045550000000002
6.06,0.0021340390909090905
6.08,0.0027724066666666666
6.1,0.0029786881818181826
6.12,0.0021472225
6.14,0.001952820769230769
6.16,0.0030883776923076914
6.18,0.0024926507692307693
6.2,0.0026343436363636366
6.22,0.0029976850000000004
6.24,0.0025633327272727275
6.26,0.0022312692857142857
6.28,0.0030498990909090915
6.3,0.0028026492307692314
6.32,0.002930170769230769
6.34,0.0025158581818181818
6.36,0.003108666
6.38,0.002273161538461538
6.4,0.0018265741666666669
6.42,0.001946742666666667
6.44,0.002703163846153846
6.46,0.0024202561538461537
6.48,0.0022089909090909094
6.5,0.002237500833333333
6.52,0.0030792588888888892
6.54,0.0024859266666666666
6.56,0.0032193657142857144
6.58,0.0026671299999999998
6.6,0.0029319441666666667
6.62,0.002714616153846154
6.64,0.0026700925
6.66,0.0026935191666666667
6.68,0.0018941120000000003
6.7,0.001948425
6.72,0.0025391109999999997
6.74,0.0015884935714285712
6.76,0.0023699999999999997
6.78,0.002063777
6.8,0.0021235907692307688
6.82,0.0023842746153846153
6.84,0.001848119230769231
6.86,0.002431112
6.88,0.0015657413333333332
6.9,0.0021172653846153844
6.92,0.0016823713333333332
6.94,0.0019554545454545454
6.96,0.0027597225
6.98,0.0017299146153846154
7.0,0.001965445
7.02,0.0020763883333333333
7.04,0.002335959090909091
7.06,0.0021261627272727273
7.08,0.0017492591666666668
7.1,0.0019430164285714287
7.12,0.00221789
7.14,0.0018755553333333337
7.16,0.0020861546153846154
7.18,0.0025614808333333334
7.2,0.002230427692307692
7.22,0.0016976555555555555
7.24,0.001865726923076923
7.26,0.0017717172727272725
7.28,0.0016625008333333337
7.3,0.0022276978571428574
7.32,0.0027463329999999997
7.34,0.0018443589230769228
7.36,0.002355778666666667
7.38,0.0020560174999999996
7.4,0.002072778
7.42,0.0022385863636363635
7.44,0.0021897208333333334
7.46,0.002116868181818182
7.48,0.001811716363636364
7.5,0.0026072718181818183
7.52,0.002388443
7.54,0.0016910000000000002
7.56,0.0019176915384615382
7.58,0.001294957923076923
7.6,0.002288686363636363
7.62,0.002008055
7.64,0.0024258969230769234
7.66,0.0014173324999999998
7.68,0.0016964645454545456
7.7,0.0019505558333333334
7.72,0.0016828200000000002
7.74,0.001865385384615385
7.76,0.002146581538461538
7.78,0.00180639
7.8,0.0019490741666666662
7.82,0.002118203846153846
7.84,0.0020351109999999996
7.86,0.0019281827272727274
7.88,0.001702736153846154
7.9,0.0018522233333333332
7.92,0.001537315
7.94,0.0020438875000000005
7.96,0.001990303636363637
7.98,0.0019875754545454548
8.0,0.0021389909090909092
8.02,0.001696442
8.04,0.0017292945454545454
8.06,0.001824665
8.08,0.0020170375000000003
8.1,0.0013862041666666668
8.12,0.0019275549999999999
8.14,0.0011696311666666668
8.16,0.001427179230769231
8.18,0.0013383328333333331
8.2,0.0014441674999999998
8.22,0.0013171708181818182
8.24,0.0010482223
8.26,0.00153
8.28,0.0016234266666666668
8.3,0.0014829380714285714
8.32,0.0015345383333333334
8.34,0.0013543521666666669
8.36,0.0015376555555555557
8.38,0.0017455558333333333
8.4,0.001704815
8.42,0.0013122238461538462
8.44,0.0019272653846153847
8.46,0.0015015873571428571
8.48,0.0013920635714285714
8.5,0.0016058976923076923
