temperature,avg_mag,avg_mag2,avg_mag4,chi0_re,chi0_im,chiq_re,chiq_im
1.8,0.956625,0.915678,0.840406,1,0,1,0
1.81,0.955695,0.913872,0.837009,1,0,1,0
1.82,0.953988,0.910658,0.831297,1,0,1,0
1.83,0.951461,0.905861,0.822634,1,0,1,0
1.84,0.950383,0.903896,0.819375,1,0,1,0
1.85,0.949137,0.901537,0.815092,1,0,1,0
1.86,0.94723,0.89798,0.808892,1,0,1,0
1.87,0.944469,0.892803,0.799776,1,0,1,0
1.88,0.942117,0.888437,0.792211,1,0,1,0
1.89,0.940422,0.885201,0.786359,1,0,1,0
1.9,0.939652,0.883837,0.784168,1,0,1,0
1.91,0.936387,0.877821,0.7739,1,0,1,0
1.92,0.933875,0.873304,0.766529,1,0,1,0
1.93,0.930512,0.86717,0.756211,1,0,1,0
1.94,0.92823,0.862947,0.748996,1,0,1,0
1.95,0.926914,0.860445,0.744546,1,0,1,0
1.96,0.923555,0.854385,0.734582,1,0,1,0
1.97,0.920566,0.848989,0.725501,1,0,1,0
1.98,0.916277,0.841308,0.713219,1,0,1,0
1.99,0.913617,0.836667,0.705953,1,0,1,0
2,0.910742,0.831514,0.697621,1,0,1,0
2.01,0.907023,0.824691,0.686264,1,0,1,0
2.02,0.902973,0.817809,0.675884,1,0,1,0
2.03,0.898914,0.810895,0.665271,1,0,1,0
2.04,0.89759,0.808483,0.661607,1,0,1,0
2.05,0.894918,0.80343,0.65304,1,0,1,0
2.06,0.88684,0.789872,0.633446,1,0,1,0
2.07,0.883164,0.783233,0.622615,1,0,1,0
2.08,0.881062,0.779232,0.615587,1,0,1,0
2.09,0.876395,0.771381,0.604324,1,0,1,0
2.1,0.869609,0.760236,0.588755,1,0,1,0
2.11,0.861062,0.747876,0.574775,1,0,1,0
2.12,0.854484,0.73786,0.560737,1,0,1,0
2.13,0.845113,0.721132,0.536163,1,0,1,0
2.14,0.838844,0.711406,0.523788,1,0,1,0
2.15,0.833941,0.703528,0.513099,1,0,1,0
2.16,0.824969,0.691003,0.498464,1,0,1,0
2.17,0.334527,0.691836,0.499061,1,0,1,0
2.18,0.322254,0.670547,0.474002,1,0,1,0
2.19,0.611203,0.658329,0.457215,1,0,1,0
2.2,0.699281,0.632261,0.430262,1,0,1,0
2.21,0.74909,0.62626,0.421791,1,0,1,0
2.22,0.104852,0.595829,0.392498,1,0,1,0
2.23,0.58452,0.599901,0.393316,1,0,1,0
2.24,0.377703,0.574057,0.369916,1,0,1,0
2.25,0.546387,0.538535,0.333938,1,0,1,0
2.26,0.118957,0.521915,0.315106,1,0,1,0
2.27,0.132777,0.500618,0.29679,1,0,1,0
2.28,0.0475352,0.491492,0.28815,1,0,1,0
2.29,0.0394219,0.469137,0.270719,1,0,1,0
2.3,0.302656,0.474566,0.271731,1,0,1,0
2.31,0.0584727,0.388205,0.206044,1,0,1,0
2.32,0.252289,0.411908,0.220751,1,0,1,0
2.33,0.0193477,0.39785,0.208263,1,0,1,0
2.34,0.0598555,0.362891,0.184811,1,0,1,0
2.35,0.118992,0.327127,0.157158,1,0,1,0
2.36,0.043332,0.35101,0.16653,1,0,1,0
2.37,0.0457852,0.305968,0.140821,1,0,1,0
2.38,0.0481172,0.290749,0.128991,1,0,1,0
2.39,0.0135,0.261471,0.110951,1,0,1,0
2.4,0.0444453,0.272964,0.115695,1,0,1,0
2.41,0.0422344,0.258807,0.107832,1,0,1,0
2.42,0.011668,0.238678,0.0937926,1,0,1,0
2.43,0.0756836,0.22095,0.0853678,1,0,1,0
2.44,0.073082,0.183962,0.0643685,1,0,1,0
2.45,0.0420547,0.206914,0.0749632,1,0,1,0
2.46,0.0382891,0.178562,0.0593252,1,0,1,0
2.47,0.00664844,0.177156,0.0583122,1,0,1,0
2.48,0.013707,0.16939,0.0556761,1,0,1,0
2.49,0.0327305,0.166441,0.054008,1,0,1,0
2.5,0.0355625,0.144566,0.0424063,201328,0,-136018,-1.62981e-11
2.51,0.00741797,0.139622,0.0394469,385877,0,-324626,-2.21189e-11
2.52,0.0106797,0.132107,0.0361326,385877,0,-56111.7,2.77354e-12
2.53,0.006125,0.125487,0.0331262,2.18104e+06,0,-1.34334e+06,9.66247e-11
2.54,0.0035625,0.11389,0.0284827,6.87866e+06,0,-4.63789e+06,-8.55653e-11
2.55,0.00180469,0.114635,0.0286725,5.90558e+06,0,-4.19231e+06,-2.32831e-11
2.56,0.0160469,0.107777,0.0264058,9.4288e+06,0,-4.54276e+06,1.16415e-10
2.57,0.0206328,0.099565,0.022676,1.90086e+07,0,-9.00839e+06,-9.38307e-10
2.58,0.0346836,0.0954374,0.021318,2.94272e+07,0,-1.41484e+07,-7.63685e-10
2.59,0.0131641,0.0931315,0.0199565,3.39906e+07,0,-1.86656e+07,6.57747e-10
2.6,0.0243281,0.0955426,0.0207962,2.327e+07,0,-1.17959e+07,-2.1304e-10
