temperature,avg_mag,avg_mag2,avg_mag4,chi0_re,chi0_im,chiq_re,chiq_im
1.8,0.956961,0.916286,0.84139,366.514,0,0.195221,-2.3731e-15
1.81,0.956438,0.915284,0.839576,366.114,0,0.186925,2.38809e-16
1.82,0.953012,0.908841,0.828126,363.537,0,0.228646,4.37905e-15
1.83,0.952027,0.906956,0.824683,362.782,0,0.220556,2.50888e-15
1.84,0.949441,0.90217,0.816428,360.868,0,0.276578,-2.32159e-15
1.85,0.949094,0.90153,0.815354,360.612,0,0.257805,2.66631e-15
1.86,0.947492,0.898465,0.809756,359.386,0,0.260321,-3.09419e-16
1.87,0.944063,0.891979,0.798145,356.792,0,0.282071,-5.29099e-15
1.88,0.942379,0.888845,0.792693,355.538,0,0.29961,-1.85862e-15
1.89,0.940102,0.884677,0.785646,353.871,0,0.335234,-2.61458e-16
1.9,0.937531,0.879961,0.77765,351.985,0,0.365215,-4.32765e-16
1.91,0.935832,0.876825,0.77227,350.73,0,0.380183,1.00764e-15
1.92,0.932992,0.871535,0.76308,348.614,0,0.396665,7.26974e-16
1.93,0.930367,0.866727,0.75503,346.691,0,0.402337,3.55982e-15
1.94,0.92973,0.865747,0.753895,346.299,0,0.444937,2.62856e-15
1.95,0.927965,0.862172,0.746839,344.869,0,0.39137,2.98594e-15
1.96,0.924934,0.856893,0.738656,342.757,0,0.450271,-1.97442e-15
1.97,0.920738,0.849482,0.726666,339.793,0,0.577011,3.87457e-15
1.98,0.917129,0.842808,0.715606,337.123,0,0.575107,-1.21625e-15
1.99,0.914078,0.837224,0.70624,334.89,0,0.604924,-8.77409e-16
2,0.912871,0.835133,0.702952,334.053,0,0.639458,1.25999e-15
2.01,0.909887,0.829732,0.69415,331.893,0,0.681071,3.88578e-16
2.02,0.906453,0.824002,0.685941,329.601,0,0.783462,-3.04479e-15
2.03,0.902758,0.817215,0.674543,326.886,0,0.761961,2.76112e-15
2.04,0.89543,0.804577,0.655318,321.831,0,0.934251,1.51477e-14
2.05,0.892285,0.79888,0.645931,319.552,0,0.897824,2.27929e-15
2.06,0.88932,0.793977,0.639195,317.591,0,0.95216,2.18225e-15
2.07,0.884246,0.785621,0.627163,314.248,0,1.10757,-4.45288e-15
2.08,0.879602,0.777726,0.615607,311.09,0,1.14521,-9.6001e-16
2.09,0.87391,0.76778,0.600531,307.112,0,1.2629,8.9595e-16
2.1,0.873367,0.766855,0.599044,306.742,0,1.30298,2.87137e-15
2.11,0.857797,0.742544,0.567007,297.018,0,1.76316,-1.26099e-15
2.12,0.86168,0.747852,0.572151,299.141,0,1.49656,7.12486e-15
2.13,0.848988,0.727691,0.545789,291.076,0,1.87615,9.48686e-16
2.14,0.843473,0.718027,0.531255,287.211,0,1.87806,-3.47022e-15
2.15,0.829363,0.699012,0.510805,279.605,0,2.52377,3.18523e-16
2.16,0.131883,0.683595,0.491007,273.438,0,2.51984,-1.34803e-15
2.17,0.828687,0.694416,0.499838,277.766,0,2.21931,-9.29479e-16
2.18,0.810809,0.669407,0.471751,267.763,0,2.89713,2.71472e-15
2.19,0.819246,0.678591,0.47769,271.436,0,2.22886,-8.7681e-15
2.2,0.177617,0.640392,0.440545,256.157,0,3.63218,1.89515e-15
2.21,0.0741367,0.631606,0.430419,252.642,0,3.98491,1.78213e-15
2.22,0.186766,0.618696,0.411135,247.478,0,3.52272,-2.02527e-15
2.23,0.202809,0.594864,0.388116,237.945,0,4.06808,2.57672e-15
2.24,0.753883,0.587517,0.376034,235.007,0,4.07332,-1.16585e-15
2.25,0.405383,0.548232,0.342856,219.293,0,5.28625,-2.61258e-15
2.26,0.0605391,0.534679,0.327839,213.872,0,5.3574,5.19362e-15
2.27,0.442629,0.527931,0.318498,211.172,0,5.40515,-4.41469e-15
2.28,0.139332,0.483702,0.282145,193.481,0,7.42159,-2.33258e-16
2.29,0.459859,0.479175,0.276732,191.67,0,6.97017,-8.72302e-16
2.3,0.110387,0.456489,0.255554,182.596,0,7.4393,1.3638e-15
2.31,0.301957,0.396278,0.210677,158.511,0,10.2452,-3.17479e-15
2.32,0.183793,0.378827,0.195804,151.531,0,9.32939,2.1716e-16
2.33,0.136523,0.395693,0.20342,158.277,0,8.54905,7.02294e-15
2.34,0.128754,0.394977,0.202371,157.991,0,9.13953,-4.45677e-15
2.35,0.0527031,0.346446,0.169551,138.578,0,10.6045,-5.0826e-15
2.36,0.0248125,0.32426,0.150491,129.704,0,10.9232,-2.3298e-15
2.37,0.128414,0.302743,0.13985,121.097,0,10.7662,-1.84242e-16
2.38,0.109992,0.308584,0.137649,123.433,0,10.9647,-8.62421e-16
2.39,0.001125,0.290247,0.130727,116.099,0,11.7589,3.22825e-15
2.4,0.0377695,0.271531,0.112819,108.612,0,11.5228,-8.42326e-16
2.41,0.0375898,0.23693,0.0926125,94.7719,0,12.8368,-1.03273e-15
2.42,0.0526172,0.233529,0.0905122,93.4115,0,11.5061,-3.47694e-15
2.43,0.0298242,0.247173,0.0982732,98.8693,0,11.193,2.56128e-15
2.44,5.85938e-05,0.211233,0.0795442,84.4934,0,12.4452,3.62044e-16
2.45,0.0399453,0.206866,0.0759881,82.7465,0,12.5237,2.07157e-15
2.46,0.0216133,0.18868,0.0652954,75.4718,0,13.0588,3.44447e-16
2.47,0.0131836,0.162029,0.0522842,64.8114,0,13.3932,2.67841e-16
2.48,0.0347461,0.150226,0.0455277,60.0902,0,13.8607,2.34196e-15
2.49,0.00508594,0.147385,0.0451704,58.9542,0,13.1192,2.83318e-15
2.5,0.028957,0.154312,0.0472395,61.7248,0,12.7978,-4.24105e-17
2.51,0.0509336,0.136832,0.0391738,54.7326,0,13.3067,1.19382e-15
2.52,0.0216445,0.124009,0.0327199,49.6034,0,13.6951,-2.2865e-16
2.53,0.0267461,0.13243,0.0362476,52.972,0,12.939,1.12022e-16
2.54,0.0453008,0.110803,0.0270821,44.3213,0,13.4584,-2.66603e-15
2.55,0.00640234,0.10041,0.022826,40.1642,0,14.0623,-9.72e-17
2.56,0.0312852,0.0971142,0.0226521,38.8457,0,13.6333,-9.89708e-16
2.57,0.0332539,0.0985009,0.0220446,39.4004,0,13.4559,-1.45456e-15
2.58,0.0314062,0.0953802,0.0214145,38.1521,0,12.6953,7.64777e-16
2.59,0.0230352,0.0866553,0.0177569,34.6621,0,12.9567,1.3094e-15
2.6,0.00549609,0.0911878,0.0196966,36.4751,0,12.7011,-6.95666e-16
