temperature,avg_mag,avg_mag2,avg_mag4,chi0_re,chi0_im,chiq_re,chiq_im
1.8,0.957059,0.916392,0.841323,1,0,1,0
1.81,0.955191,0.912893,0.835161,1,0,1,0
1.82,0.953707,0.910154,0.830483,1,0,1,0
1.83,0.951852,0.906645,0.824201,1,0,1,0
1.84,0.950395,0.9039,0.819307,1,0,1,0
1.85,0.948531,0.900376,0.812994,1,0,1,0
1.86,0.947301,0.898134,0.809208,1,0,1,0
1.87,0.945652,0.894974,0.80346,1,0,1,0
1.88,0.94359,0.891116,0.796691,1,0,1,0
1.89,0.941469,0.887083,0.789416,1,0,1,0
1.9,0.939742,0.884123,0.784899,1,0,1,0
1.91,0.936477,0.877976,0.774163,1,0,1,0
1.92,0.933461,0.872334,0.76427,1,0,1,0
1.93,0.931879,0.869466,0.75953,1,0,1,0
1.94,0.930555,0.867013,0.755286,1,0,1,0
1.95,0.927852,0.862029,0.74682,1,0,1,0
1.96,0.923848,0.854804,0.73494,1,0,1,0
1.97,0.921422,0.850569,0.72837,1,0,1,0
1.98,0.917039,0.842524,0.714826,1,0,1,0
1.99,0.914203,0.837387,0.706323,1,0,1,0
2,0.909902,0.829909,0.694749,1,0,1,0
2.01,0.908539,0.827779,0.691951,1,0,1,0
2.02,0.90609,0.822869,0.682903,1,0,1,0
2.03,0.904551,0.82023,0.678952,1,0,1,0
2.04,0.89766,0.808642,0.661706,1,0,1,0
2.05,0.894305,0.80238,0.651375,1,0,1,0
2.06,0.889566,0.794469,0.640065,1,0,1,0
2.07,0.884141,0.784999,0.625366,1,0,1,0
2.08,0.879473,0.777322,0.614455,1,0,1,0
2.09,0.869531,0.761865,0.593354,1,0,1,0
2.1,0.869535,0.761356,0.592637,1,0,1,0
2.11,0.859676,0.745839,0.571721,1,0,1,0
2.12,0.860836,0.745304,0.566641,1,0,1,0
2.13,0.849645,0.728493,0.545981,1,0,1,0
2.14,0.84398,0.721431,0.538154,1,0,1,0
2.15,0.835887,0.706805,0.517764,1,0,1,0
2.16,0.837574,0.708739,0.519163,1,0,1,0
2.17,0.828359,0.694854,0.501512,1,0,1,0
2.18,0.815613,0.67434,0.47439,1,0,1,0
2.19,0.101285,0.652738,0.452802,1,0,1,0
2.2,0.0695703,0.614077,0.416754,1,0,1,0
2.21,0.430891,0.621487,0.418422,1,0,1,0
2.22,0.00794531,0.610576,0.405404,1,0,1,0
2.23,0.0113398,0.59292,0.387166,1,0,1,0
2.24,0.540617,0.559051,0.351971,1,0,1,0
2.25,0.354859,0.547877,0.340075,1,0,1,0
2.26,0.597258,0.529323,0.32443,1,0,1,0
2.27,0.158512,0.500164,0.296041,1,0,1,0
2.28,0.00225391,0.490997,0.286538,1,0,1,0
2.29,0.0842305,0.465954,0.26549,1,0,1,0
2.3,0.030582,0.445293,0.247687,1,0,1,0
2.31,0.0329414,0.416398,0.224584,1,0,1,0
2.32,0.13148,0.418109,0.222371,1,0,1,0
2.33,0.0755117,0.383873,0.198274,1,0,1,0
2.34,0.126578,0.365566,0.184413,1,0,1,0
2.35,0.0759687,0.331992,0.159187,1,0,1,0
2.36,0.0705352,0.299701,0.138109,1,0,1,0
2.37,0.070625,0.328469,0.153132,1,0,1,0
2.38,0.0925391,0.313656,0.14263,1,0,1,0
2.39,0.014625,0.277409,0.121842,1,0,1,0
2.4,0.0219258,0.236103,0.0946842,1,0,1,0
2.41,0.0632734,0.251594,0.103589,1,0,1,0
2.42,0.0315703,0.233843,0.0902931,1,0,1,0
2.43,0.0393047,0.226278,0.0880535,1,0,1,0
2.44,0.0378008,0.212587,0.0775995,1,0,1,0
2.45,0.0428711,0.185295,0.064114,1,0,1,0
2.46,0.0159141,0.186894,0.0644691,1,0,1,0
2.47,0.0768125,0.177966,0.0602757,1,0,1,0
2.48,0.0644336,0.145127,0.0448057,318768,0,-239073,0
2.49,0.056043,0.14281,0.0425762,1.62739e+06,0,-1.29014e+06,-2.21189e-11
2.5,0.0330742,0.140725,0.0403356,620758,0,-439763,-2.21189e-11
2.51,6.25e-05,0.136002,0.0403978,671090,0,-368481,7.567e-12
2.52,0.0214258,0.127102,0.0353184,2.41592e+06,0,-1.52672e+06,-2.91038e-11
2.53,0.0217734,0.124667,0.0334087,4.14397e+06,0,-3.01447e+06,-1.16843e-10
2.54,0.0289258,0.123464,0.0327541,3.13734e+06,0,-2.25936e+06,-6.63567e-11
2.55,0.00765234,0.102847,0.0247582,2.09212e+07,0,-1.35879e+07,-1.07451e-09
2.56,0.0208594,0.106678,0.0250369,9.47913e+06,0,-5.67484e+06,-1.28057e-10
2.57,0.00498828,0.0962667,0.0216037,2.42599e+07,0,-1.33645e+07,-1.53668e-10
2.58,0.0409805,0.0992411,0.022415,2.04179e+07,0,-1.00158e+07,-1.42783e-09
2.59,0.00832813,0.0915309,0.0198394,3.30511e+07,0,-1.71523e+07,-1.68802e-11
2.6,0.0405664,0.0876797,0.0188905,3.92587e+07,0,-1.82906e+07,1.78232e-09
