temperature,avg_mag,avg_mag2,avg_mag4,chi0_re,chi0_im,chiq_re,chiq_im
1.8,0.957238,0.916747,0.842013,366.699,0,0.192644,4.38538e-17
1.81,0.955945,0.914379,0.838033,365.751,0,0.192413,1.5854e-16
1.82,0.953504,0.909735,0.829604,363.894,0,0.221533,-5.08482e-17
1.83,0.950488,0.903991,0.819179,361.596,0,0.234713,3.79508e-15
1.84,0.950336,0.90379,0.819106,361.516,0,0.236052,-6.67588e-15
1.85,0.949184,0.901609,0.815202,360.644,0,0.246385,2.1585e-15
1.86,0.947145,0.897795,0.808518,359.118,0,0.273703,-2.60791e-16
1.87,0.944328,0.892505,0.799151,357.002,0,0.294314,-6.34159e-16
1.88,0.943336,0.890645,0.795876,356.258,0,0.285998,1.99218e-15
1.89,0.940348,0.885066,0.786131,354.026,0,0.312312,4.88831e-16
1.9,0.93791,0.880715,0.779067,352.286,0,0.361487,1.63869e-16
1.91,0.936656,0.878194,0.77418,351.277,0,0.334892,-5.5389e-16
1.92,0.935434,0.87607,0.77093,350.428,0,0.368011,-2.32359e-15
1.93,0.931125,0.868156,0.757517,347.262,0,0.410757,-1.02185e-15
1.94,0.927957,0.86238,0.747882,344.952,0,0.457401,-3.47278e-16
1.95,0.926762,0.860305,0.744648,344.122,0,0.450402,1.66356e-15
1.96,0.923383,0.854073,0.734075,341.629,0,0.521943,-2.70772e-15
1.97,0.919461,0.846924,0.722053,338.77,0,0.55598,-1.0475e-15
1.98,0.919453,0.846973,0.722383,338.789,0,0.55592,-4.17e-16
1.99,0.916918,0.842258,0.714223,336.903,0,0.55338,6.75271e-15
2,0.912664,0.834995,0.703285,333.998,0,0.614741,-3.89466e-16
2.01,0.908879,0.827843,0.690882,331.137,0,0.664273,-2.66032e-15
2.02,0.904305,0.820133,0.679638,328.053,0,0.745208,-4.64317e-15
2.03,0.898535,0.80995,0.663345,323.98,0,0.815269,2.00173e-15
2.04,0.895191,0.805068,0.657554,322.027,0,1.08452,9.25948e-15
2.05,0.893277,0.800799,0.649325,320.32,0,0.945597,5.66525e-15
2.06,0.889027,0.793033,0.636677,317.213,0,0.959839,1.51357e-15
2.07,0.884297,0.785847,0.627971,314.339,0,1.0855,-1.18794e-15
2.08,0.879551,0.777833,0.615655,311.133,0,1.18622,-3.7238e-15
2.09,0.872371,0.766329,0.600584,306.531,0,1.38306,3.69593e-16
2.1,0.872082,0.764659,0.595864,305.863,0,1.31172,2.61868e-15
2.11,0.865086,0.752504,0.577263,301.002,0,1.47837,-6.9178e-16
2.12,0.859094,0.743317,0.565947,297.327,0,1.60717,6.28508e-15
2.13,0.853277,0.733762,0.552154,293.505,0,1.64271,4.57812e-15
2.14,0.841828,0.717521,0.532678,287.009,0,2.1596,1.85629e-15
2.15,0.836004,0.707284,0.518732,282.914,0,2.07292,2.48412e-15
2.16,0.833,0.702682,0.51141,281.073,0,2.12992,-6.10179e-16
2.17,0.23893,0.689045,0.494538,275.618,0,2.10117,1.0737e-15
2.18,0.245988,0.671987,0.476825,268.795,0,2.64433,-2.38765e-15
2.19,0.787,0.658144,0.460033,263.258,0,3.12987,-1.89038e-15
2.2,0.789316,0.636098,0.430694,254.439,0,3.29652,-1.50435e-16
2.21,0.365613,0.607509,0.407337,243.004,0,4.77174,-2.78277e-15
2.22,0.237461,0.62631,0.420075,250.524,0,3.37044,-1.71485e-15
2.23,0.512652,0.596235,0.389259,238.494,0,4.27223,5.72464e-15
2.24,0.19398,0.584216,0.373906,233.686,0,4.08852,1.9853e-15
2.25,0.303059,0.551697,0.343481,220.679,0,5.38008,2.79532e-15
2.26,0.0374844,0.532801,0.329168,213.12,0,5.63675,-3.45279e-15
2.27,0.545684,0.527987,0.319942,211.195,0,5.65431,-1.1191e-15
2.28,0.12743,0.476224,0.278453,190.489,0,7.63346,-3.36053e-15
2.29,0.125809,0.453998,0.25735,181.599,0,7.9833,1.82088e-15
2.3,0.22798,0.44415,0.248375,177.66,0,7.40252,9.83991e-16
2.31,0.14616,0.407033,0.216753,162.813,0,8.89806,3.55715e-16
2.32,0.17593,0.387432,0.201565,154.973,0,9.19483,-4.73921e-15
2.33,0.0316836,0.378599,0.195127,151.44,0,9.71355,5.73164e-15
2.34,0.0651055,0.359175,0.180357,143.67,0,9.80662,1.4026e-15
2.35,0.00485938,0.32703,0.159256,130.812,0,10.9559,3.3118e-16
2.36,0.0250195,0.335042,0.160533,134.017,0,9.99395,1.88111e-15
2.37,0.00511719,0.312079,0.141951,124.831,0,10.5802,7.41573e-16
2.38,0.0402344,0.297798,0.129592,119.119,0,11.1217,1.27565e-16
2.39,0.0267969,0.268786,0.114353,107.514,0,11.8705,-5.28577e-16
2.4,0.12816,0.242391,0.0989408,96.9565,0,12.5949,5.27967e-16
2.41,0.0978047,0.231297,0.0907218,92.5188,0,12.7421,-1.65495e-15
2.42,0.10191,0.216752,0.0846527,86.7009,0,12.8586,1.52628e-15
2.43,0.0421484,0.223053,0.0847122,89.2213,0,12.3247,2.49134e-16
2.44,0.0887617,0.206469,0.0759193,82.5874,0,11.8752,-3.42099e-15
2.45,0.021582,0.183264,0.0647679,73.3058,0,13.3641,-5.72103e-15
2.46,0.0631797,0.179828,0.0609666,71.9313,0,13.2508,2.1374e-15
2.47,0.00502734,0.162253,0.0530406,64.901,0,13.2168,-9.07052e-16
2.48,0.0248984,0.154181,0.0473322,61.6724,0,12.7698,1.24423e-15
2.49,0.0481094,0.160678,0.0502298,64.2711,0,12.6765,2.1631e-15
2.5,0.0777891,0.139651,0.0398797,55.8605,0,13.0503,-2.19652e-15
2.51,0.00507422,0.134155,0.0377717,53.6621,0,13.3929,-2.07839e-15
2.52,0.0752695,0.133288,0.0378398,53.3151,0,13.0502,-1.95111e-15
2.53,0.00825391,0.115647,0.0303727,46.2589,0,13.5547,3.86857e-16
2.54,0.0187422,0.113868,0.0284056,45.5472,0,13.3722,-1.26354e-15
2.55,0.00580078,0.106327,0.0264245,42.5307,0,13.1509,-1.55098e-16
2.56,0.0254219,0.112001,0.0285527,44.8004,0,12.4092,7.18925e-16
2.57,0.00510156,0.102265,0.0246175,40.9059,0,12.9377,-9.22595e-17
2.58,0.0125391,0.0940989,0.0212136,37.6396,0,13.1818,-2.17049e-15
2.59,0.0145039,0.0904621,0.0200612,36.1848,0,13.1319,4.41314e-17
2.6,0.0273203,0.0777396,0.0159128,31.0959,0,12.5377,-9.65339e-17
