temperature,avg_mag,avg_mag2,avg_mag4,chi0_re,chi0_im,chiq_re,chiq_im
1.8,0.956266,0.914965,0.839015,1,0,1,0
1.81,0.95534,0.913218,0.835893,1,0,1,0
1.82,0.953172,0.909123,0.828579,1,0,1,0
1.83,0.951148,0.905265,0.821543,1,0,1,0
1.84,0.948984,0.901288,0.814786,1,0,1,0
1.85,0.948711,0.900677,0.813393,1,0,1,0
1.86,0.946492,0.896569,0.806338,1,0,1,0
1.87,0.943785,0.891587,0.797839,1,0,1,0
1.88,0.942012,0.888253,0.791954,1,0,1,0
1.89,0.939383,0.883391,0.783588,1,0,1,0
1.9,0.93657,0.878166,0.774566,1,0,1,0
1.91,0.936039,0.877177,0.772782,1,0,1,0
1.92,0.933516,0.872484,0.764653,1,0,1,0
1.93,0.932324,0.870189,0.760463,1,0,1,0
1.94,0.928523,0.8634,0.7495,1,0,1,0
1.95,0.927594,0.861778,0.747002,1,0,1,0
1.96,0.924578,0.856253,0.737606,1,0,1,0
1.97,0.920555,0.849003,0.725817,1,0,1,0
1.98,0.917191,0.842873,0.715584,1,0,1,0
1.99,0.913602,0.836423,0.704995,1,0,1,0
2,0.91068,0.83121,0.696736,1,0,1,0
2.01,0.90893,0.828165,0.691894,1,0,1,0
2.02,0.90582,0.822643,0.68322,1,0,1,0
2.03,0.90252,0.816848,0.674058,1,0,1,0
2.04,0.898613,0.810114,0.66363,1,0,1,0
2.05,0.896289,0.805987,0.65728,1,0,1,0
2.06,0.892523,0.799264,0.646583,1,0,1,0
2.07,0.888687,0.792611,0.636381,1,0,1,0
2.08,0.88252,0.782201,0.6211,1,0,1,0
2.09,0.87266,0.765742,0.597656,1,0,1,0
2.1,0.87093,0.762745,0.59318,1,0,1,0
2.11,0.734531,0.744654,0.570926,1,0,1,0
2.12,0.850531,0.732435,0.555355,1,0,1,0
2.13,0.849539,0.727787,0.544798,1,0,1,0
2.14,0.837879,0.711705,0.526534,1,0,1,0
2.15,0.423508,0.69962,0.514193,1,0,1,0
2.16,0.824988,0.69179,0.498247,1,0,1,0
2.17,0.829242,0.695378,0.501093,1,0,1,0
2.18,0.805043,0.66322,0.466984,1,0,1,0
2.19,0.16791,0.652977,0.453222,1,0,1,0
2.2,0.180016,0.638704,0.437918,1,0,1,0
2.21,0.107758,0.634906,0.433282,1,0,1,0
2.22,0.336383,0.607314,0.403095,1,0,1,0
2.23,0.317641,0.574767,0.369304,1,0,1,0
2.24,0.178387,0.581021,0.373346,1,0,1,0
2.25,0.136734,0.549095,0.341211,1,0,1,0
2.26,0.0455352,0.548324,0.336624,1,0,1,0
2.27,0.316844,0.503614,0.299775,1,0,1,0
2.28,0.221773,0.488597,0.285111,1,0,1,0
2.29,0.110773,0.490495,0.283264,1,0,1,0
2.3,0.106586,0.458219,0.25915,1,0,1,0
2.31,0.216801,0.401163,0.211859,1,0,1,0
2.32,0.240828,0.448072,0.246325,1,0,1,0
2.33,0.0425898,0.374879,0.193437,1,0,1,0
2.34,0.208395,0.371241,0.187277,1,0,1,0
2.35,0.173039,0.3572,0.177068,1,0,1,0
2.36,0.0453086,0.345177,0.165589,1,0,1,0
2.37,0.129121,0.300926,0.139486,1,0,1,0
2.38,0.00977344,0.300985,0.135348,1,0,1,0
2.39,0.0563945,0.26343,0.111631,1,0,1,0
2.4,0.167574,0.260884,0.1089,1,0,1,0
2.41,0.0386406,0.237199,0.0930282,1,0,1,0
2.42,0.0596953,0.246991,0.0971724,1,0,1,0
2.43,0.0481719,0.209203,0.0786087,1,0,1,0
2.44,0.0394766,0.209655,0.0765779,1,0,1,0
2.45,0.109031,0.185652,0.0643711,1,0,1,0
2.46,0.0230664,0.173152,0.0572739,50332.6,0,-48688.4,0
2.47,0.0336797,0.167341,0.0547688,1,0,1,0
2.48,0.0246758,0.156509,0.0479725,50332.6,0,-13572.1,0
2.49,0.0416445,0.153335,0.0453559,67109.9,0,-40718.2,-1.16415e-12
2.5,0.0781211,0.15055,0.0455291,50332.6,0,-15955.1,0
2.51,0.00728516,0.140131,0.0420142,788530,0,-397487,1.16415e-12
2.52,0.021082,0.117715,0.0302313,6.12368e+06,0,-4.00804e+06,-4.88944e-11
2.53,0.00269922,0.119472,0.0314334,5.57004e+06,0,-2.7477e+06,1.81317e-10
2.54,0.00787891,0.100048,0.0238783,3.45778e+07,0,-2.33127e+07,1.6531e-10
2.55,0.0190312,0.106375,0.0263536,1.37741e+07,0,-7.43015e+06,-2.25264e-10
2.56,0.0549102,0.0989888,0.0227312,2.53336e+07,0,-1.21999e+07,-3.28291e-10
2.57,0.0163672,0.0951197,0.0221781,3.09204e+07,0,-1.85391e+07,2.02563e-10
2.58,0.0269687,0.0920429,0.0199816,2.74307e+07,0,-1.42306e+07,9.66247e-11
2.59,0.0270898,0.0877259,0.0180081,4.36711e+07,0,-2.15353e+07,-2.3999e-09
2.6,0.0176875,0.091383,0.0201727,3.32021e+07,0,-1.84372e+07,8.32079e-10
