temperature,avg_mag,avg_mag2,avg_mag4,chi0_re,chi0_im,chiq_re,chiq_im
1.8,0.956762,0.915861,0.840471,366.344,0,0.19834,2.23266e-16
1.81,0.95557,0.913626,0.836537,365.45,0,0.201555,7.72715e-16
1.82,0.953215,0.909219,0.828809,363.688,0,0.229552,-3.26184e-16
1.83,0.952094,0.907133,0.825163,362.853,0,0.244949,-2.45026e-15
1.84,0.950461,0.904018,0.819501,361.607,0,0.244704,-1.80056e-15
1.85,0.948813,0.900894,0.813891,360.358,0,0.236145,4.69602e-15
1.86,0.947414,0.898314,0.809459,359.326,0,0.272244,1.29952e-15
1.87,0.944836,0.893404,0.800551,357.362,0,0.269852,-2.71172e-15
1.88,0.942535,0.889207,0.793539,355.683,0,0.294372,-1.7526e-15
1.89,0.941117,0.886559,0.788924,354.624,0,0.316399,1.07914e-15
1.9,0.939145,0.882816,0.782176,353.127,0,0.319678,4.30989e-16
1.91,0.936633,0.878243,0.774542,351.297,0,0.347422,4.06331e-15
1.92,0.933781,0.873028,0.765769,349.211,0,0.39127,1.12654e-15
1.93,0.930957,0.867697,0.756292,347.079,0,0.386846,5.89084e-16
1.94,0.927465,0.861415,0.746005,344.566,0,0.455651,7.75602e-16
1.95,0.925531,0.857842,0.739924,343.137,0,0.473854,-2.76268e-15
1.96,0.922738,0.852995,0.732425,341.198,0,0.554236,-2.8082e-15
1.97,0.920633,0.849039,0.725546,339.616,0,0.541203,-1.60461e-15
1.98,0.916281,0.841307,0.713213,336.523,0,0.637252,2.70939e-15
1.99,0.913824,0.836852,0.705884,334.741,0,0.621915,-2.69851e-15
2,0.911652,0.833029,0.69982,333.212,0,0.658518,3.85358e-16
2.01,0.904375,0.820921,0.682112,328.368,0,0.851261,-3.81195e-15
2.02,0.903051,0.818332,0.677525,327.333,0,0.789669,-1.70663e-15
2.03,0.900602,0.813444,0.668798,325.378,0,0.798554,-4.52083e-16
2.04,0.898246,0.809295,0.662186,323.718,0,0.805574,-3.2423e-15
2.05,0.892676,0.79968,0.647562,319.872,0,0.853153,-1.19149e-15
2.06,0.888512,0.792794,0.637744,317.118,0,1.01698,-1.13776e-15
2.07,0.884781,0.786049,0.626978,314.42,0,0.990149,8.18534e-15
2.08,0.879008,0.777307,0.616136,310.923,0,1.28229,2.78333e-15
2.09,0.875996,0.770992,0.60447,308.397,0,1.24563,-2.96174e-15
2.1,0.865145,0.755824,0.58694,302.329,0,1.47284,2.06335e-15
2.11,0.862492,0.748881,0.573553,299.552,0,1.51249,1.77269e-15
2.12,0.858406,0.742617,0.565072,297.047,0,1.51334,4.13225e-16
2.13,0.00164844,0.727767,0.54879,291.107,0,1.89375,9.45466e-16
2.14,0.848008,0.724619,0.538623,289.848,0,1.72185,5.75318e-16
2.15,0.84166,0.71488,0.526473,285.952,0,1.91402,2.77778e-16
2.16,0.830937,0.698724,0.506924,279.49,0,2.12293,-1.54543e-15
2.17,0.817113,0.680558,0.486118,272.223,0,2.61134,-2.92077e-15
2.18,0.261223,0.669347,0.474033,267.739,0,3.14772,1.94844e-15
2.19,0.695168,0.660144,0.462003,264.057,0,3.10374,1.55653e-15
2.2,0.0509922,0.638673,0.436713,255.469,0,3.21811,1.58029e-15
2.21,0.0278398,0.62148,0.421623,248.592,0,4.11349,2.82974e-15
2.22,0.222949,0.607647,0.402774,243.059,0,4.09106,7.46969e-15
2.23,0.182383,0.58554,0.37812,234.216,0,4.34031,-8.46878e-16
2.24,0.7565,0.589365,0.377127,235.746,0,4.00873,-7.35823e-15
2.25,0.479691,0.547803,0.342187,219.121,0,5.38065,-5.53424e-15
2.26,0.251852,0.532706,0.328014,213.083,0,5.86907,7.77156e-16
2.27,0.281508,0.531084,0.323608,212.433,0,5.93227,-5.10814e-16
2.28,0.115344,0.479017,0.27677,191.607,0,7.71693,4.14113e-16
2.29,0.218707,0.443963,0.250894,177.585,0,8.31532,4.10338e-16
2.3,0.145676,0.472977,0.265819,189.191,0,6.61082,2.11064e-15
2.31,0.0445898,0.421043,0.227554,168.417,0,8.18634,-1.26021e-15
2.32,0.0743555,0.430709,0.234464,172.284,0,7.70827,6.07692e-15
2.33,0.033082,0.386812,0.199393,154.725,0,9.03422,-7.1686e-15
2.34,0.161359,0.385541,0.199183,154.216,0,9.58577,-3.23142e-15
2.35,0.197711,0.349188,0.172255,139.675,0,9.63429,-1.16873e-15
2.36,0.100035,0.315998,0.149015,126.399,0,10.4184,4.9592e-15
2.37,0.100305,0.314407,0.14439,125.763,0,10.8088,5.63105e-16
2.38,0.0988008,0.287243,0.125755,114.897,0,11.7428,5.74318e-16
2.39,0.0337773,0.259412,0.110202,103.765,0,13.2553,1.3724e-15
2.4,0.0654102,0.272039,0.116325,108.816,0,11.7329,-7.84151e-16
2.41,0.11807,0.241069,0.097672,96.4278,0,12.5005,1.93501e-15
2.42,0.0896289,0.23253,0.0914914,93.012,0,13.0598,1.07298e-15
2.43,0.0545742,0.211756,0.0806188,84.7024,0,13.2878,2.6808e-15
2.44,0.0646367,0.190284,0.0654373,76.1138,0,13.2489,-5.01765e-15
2.45,0.0235156,0.180188,0.0637305,72.075,0,13.0625,-7.69607e-16
2.46,0.0855195,0.186548,0.0642932,74.619,0,13.1898,1.66023e-15
2.47,0.000332031,0.180719,0.0620162,72.2876,0,13.0367,-5.7615e-16
2.48,0.0220898,0.14611,0.0454849,58.444,0,14.2982,-2.68469e-15
2.49,0.00556641,0.14972,0.0457917,59.888,0,13.4848,3.49443e-16
2.5,0.0243438,0.133012,0.0370791,53.205,0,13.8559,-3.47877e-15
2.51,0.00251562,0.136165,0.0394595,54.4661,0,13.5011,-1.37929e-15
2.52,0.0407422,0.122687,0.032087,49.0748,0,13.9048,-8.38718e-16
2.53,0.00691406,0.108887,0.0274642,43.5549,0,13.8144,-7.00939e-16
2.54,0.00110156,0.115364,0.0304791,46.1457,0,13.5825,-3.52385e-16
2.55,0.0212422,0.108887,0.0274923,43.555,0,12.9969,3.0756e-15
2.56,0.0152578,0.105861,0.0244183,42.3443,0,12.4156,1.09041e-15
2.57,0.00588672,0.0940383,0.0213638,37.6153,0,13.5573,1.70902e-15
2.58,0.0225352,0.091745,0.019846,36.698,0,12.8348,-1.56763e-16
2.59,0.0192031,0.0967944,0.0218684,38.7178,0,12.7187,-8.44547e-16
2.6,0.00390625,0.0868695,0.0175395,34.7478,0,11.4917,7.01939e-16
