temperature,avg_mag,avg_mag2,avg_mag4,chi0_re,chi0_im,chiq_re,chiq_im
1.8,0.956387,0.915202,0.839449,1,0,1,0
1.81,0.955258,0.913055,0.835581,1,0,1,0
1.82,0.95284,0.908532,0.827617,1,0,1,0
1.83,0.951504,0.906026,0.823214,1,0,1,0
1.84,0.950934,0.904918,0.821123,1,0,1,0
1.85,0.949129,0.901501,0.814991,1,0,1,0
1.86,0.946922,0.897417,0.807961,1,0,1,0
1.87,0.943164,0.890324,0.795299,1,0,1,0
1.88,0.942391,0.888903,0.792903,1,0,1,0
1.89,0.940918,0.886139,0.788012,1,0,1,0
1.9,0.939598,0.883666,0.783668,1,0,1,0
1.91,0.935867,0.876802,0.771989,1,0,1,0
1.92,0.932563,0.871147,0.763414,1,0,1,0
1.93,0.931484,0.868718,0.75818,1,0,1,0
1.94,0.929289,0.864805,0.751897,1,0,1,0
1.95,0.926645,0.859948,0.743678,1,0,1,0
1.96,0.924684,0.856335,0.737504,1,0,1,0
1.97,0.921105,0.850299,0.728315,1,0,1,0
1.98,0.91782,0.844175,0.718052,1,0,1,0
1.99,0.915195,0.83919,0.709269,1,0,1,0
2,0.912488,0.834277,0.701166,1,0,1,0
2.01,0.908305,0.826984,0.689954,1,0,1,0
2.02,0.904988,0.820955,0.680009,1,0,1,0
2.03,0.899719,0.811741,0.665639,1,0,1,0
2.04,0.89502,0.804254,0.655522,1,0,1,0
2.05,0.889496,0.794528,0.640327,1,0,1,0
2.06,0.885098,0.787647,0.630677,1,0,1,0
2.07,0.882379,0.781794,0.620258,1,0,1,0
2.08,0.879133,0.77746,0.616127,1,0,1,0
2.09,0.874539,0.768833,0.601551,1,0,1,0
2.1,0.859031,0.749083,0.579301,1,0,1,0
2.11,0.868781,0.758738,0.586482,1,0,1,0
2.12,0.858687,0.742794,0.565232,1,0,1,0
2.13,0.849629,0.730105,0.549818,1,0,1,0
2.14,0.839355,0.711897,0.523862,1,0,1,0
2.15,0.827434,0.701905,0.514164,1,0,1,0
2.16,0.835117,0.704608,0.513017,1,0,1,0
2.17,0.0624258,0.688511,0.494754,1,0,1,0
2.18,0.392789,0.653778,0.459789,1,0,1,0
2.19,0.799984,0.657136,0.459018,1,0,1,0
2.2,0.788832,0.640163,0.439438,1,0,1,0
2.21,0.792457,0.640226,0.43201,1,0,1,0
2.22,0.538207,0.582292,0.382447,1,0,1,0
2.23,0.540398,0.550558,0.346777,1,0,1,0
2.24,0.0105352,0.556477,0.354503,1,0,1,0
2.25,0.273566,0.533844,0.33107,1,0,1,0
2.26,0.178289,0.53131,0.32936,1,0,1,0
2.27,0.497969,0.519234,0.310625,1,0,1,0
2.28,0.17341,0.487891,0.285994,1,0,1,0
2.29,0.469484,0.471073,0.26864,1,0,1,0
2.3,0.059707,0.441511,0.245305,1,0,1,0
2.31,0.0972656,0.40834,0.216112,1,0,1,0
2.32,0.273383,0.420645,0.227632,1,0,1,0
2.33,0.285277,0.398366,0.205005,1,0,1,0
2.34,0.15718,0.385109,0.197628,1,0,1,0
2.35,0.000203125,0.364834,0.182497,1,0,1,0
2.36,0.0423594,0.310658,0.143815,1,0,1,0
2.37,0.0508867,0.310171,0.141191,1,0,1,0
2.38,0.141715,0.310073,0.140019,1,0,1,0
2.39,0.0293828,0.277559,0.119879,1,0,1,0
2.4,0.0506172,0.234079,0.0955521,1,0,1,0
2.41,0.0221328,0.270345,0.112182,1,0,1,0
2.42,0.0680156,0.236873,0.0958616,1,0,1,0
2.43,0.0953008,0.211898,0.0801977,1,0,1,0
2.44,0.00316406,0.189122,0.0671283,1,0,1,0
2.45,0.0516211,0.187111,0.0650703,1,0,1,0
2.46,0.0711953,0.174218,0.0579242,1,0,1,0
2.47,0.00397656,0.166244,0.0543715,16778.2,0,-13572.1,0
2.48,0.026707,0.163781,0.0530896,1,0,1,0
2.49,0.0663125,0.15393,0.0475052,150996,0,-131181,-1.74623e-12
2.5,0.000871094,0.145754,0.0434953,385877,0,-343642,1.54193e-13
2.51,0.0163906,0.142342,0.0421529,234882,0,-139222,-4.65661e-12
2.52,0.0307852,0.123622,0.0343433,2.95279e+06,0,-1.76737e+06,-3.37604e-11
2.53,0.00108594,0.124661,0.0334422,2.13071e+06,0,-1.44945e+06,3.89991e-11
2.54,0.0345937,0.114567,0.028255,1.15259e+07,0,-7.08622e+06,3.74857e-10
2.55,0.0225156,0.119889,0.0313738,3.00312e+06,0,-1.77925e+06,-2.96859e-11
2.56,0.0144062,0.104983,0.0259312,1.63075e+07,0,-1.03467e+07,-3.39933e-10
2.57,0.0311797,0.0893314,0.019545,4.35033e+07,0,-1.51721e+07,-2.98605e-10
2.58,0.0114336,0.100988,0.0232619,1.65423e+07,0,-9.18356e+06,5.27361e-10
2.59,0.0209922,0.0949559,0.0210299,2.84374e+07,0,-1.79879e+07,8.21892e-10
2.6,0.0149063,0.0863134,0.0182264,5.54655e+07,0,-3.50182e+07,-6.00703e-10
