temperature,avg_mag,avg_mag2,avg_mag4,chi0_re,chi0_im,chiq_re,chiq_im
1.8,0.957613,0.917472,0.843369,1,0,1,0
1.81,0.955082,0.912693,0.834819,1,0,1,0
1.82,0.953809,0.910288,0.830527,1,0,1,0
1.83,0.951711,0.906393,0.82379,1,0,1,0
1.84,0.950438,0.90396,0.819355,1,0,1,0
1.85,0.949129,0.901489,0.81492,1,0,1,0
1.86,0.946148,0.895942,0.805268,1,0,1,0
1.87,0.945,0.893844,0.801742,1,0,1,0
1.88,0.943621,0.891183,0.796826,1,0,1,0
1.89,0.942324,0.888796,0.792762,1,0,1,0
1.9,0.938656,0.88208,0.781368,1,0,1,0
1.91,0.934453,0.874306,0.76807,1,0,1,0
1.92,0.932996,0.871582,0.763297,1,0,1,0
1.93,0.931594,0.869011,0.758939,1,0,1,0
1.94,0.928676,0.863761,0.750389,1,0,1,0
1.95,0.927238,0.861071,0.745683,1,0,1,0
1.96,0.922285,0.852128,0.730948,1,0,1,0
1.97,0.918348,0.845117,0.719666,1,0,1,0
1.98,0.917492,0.843259,0.715769,1,0,1,0
1.99,0.915277,0.839211,0.708986,1,0,1,0
2,0.910859,0.831503,0.696989,1,0,1,0
2.01,0.907375,0.82645,0.691199,1,0,1,0
2.02,0.904973,0.821106,0.680726,1,0,1,0
2.03,0.90034,0.812828,0.667426,1,0,1,0
2.04,0.896484,0.806039,0.656714,1,0,1,0
2.05,0.892141,0.798738,0.646177,1,0,1,0
2.06,0.887004,0.789721,0.632137,1,0,1,0
2.07,0.882898,0.783819,0.625251,1,0,1,0
2.08,0.879641,0.77747,0.614624,1,0,1,0
2.09,0.869582,0.761895,0.594395,1,0,1,0
2.1,0.87575,0.769891,0.601094,1,0,1,0
2.11,0.86416,0.751681,0.577757,1,0,1,0
2.12,0.858707,0.74277,0.56533,1,0,1,0
2.13,0.858113,0.741192,0.561498,1,0,1,0
2.14,0.842855,0.717517,0.531342,1,0,1,0
2.15,0.837352,0.708851,0.519252,1,0,1,0
2.16,0.740562,0.70058,0.511414,1,0,1,0
2.17,0.808086,0.667433,0.471608,1,0,1,0
2.18,0.110508,0.671073,0.473703,1,0,1,0
2.19,0.111438,0.645807,0.444765,1,0,1,0
2.2,0.78709,0.639754,0.438057,1,0,1,0
2.21,0.420836,0.628787,0.427497,1,0,1,0
2.22,0.736129,0.593713,0.390649,1,0,1,0
2.23,0.370723,0.596206,0.386338,1,0,1,0
2.24,0.321273,0.562244,0.357783,1,0,1,0
2.25,0.527879,0.553909,0.348877,1,0,1,0
2.26,0.369258,0.51676,0.316079,1,0,1,0
2.27,0.213559,0.514936,0.310688,1,0,1,0
2.28,0.0969922,0.498167,0.294373,1,0,1,0
2.29,0.27273,0.464359,0.263111,1,0,1,0
2.3,0.0922383,0.43745,0.242472,1,0,1,0
2.31,0.147289,0.43588,0.2386,1,0,1,0
2.32,0.0268789,0.401752,0.2105,1,0,1,0
2.33,0.0348828,0.377217,0.192274,1,0,1,0
2.34,0.0753164,0.364092,0.1832,1,0,1,0
2.35,0.166141,0.364888,0.17815,1,0,1,0
2.36,0.131555,0.342989,0.166002,1,0,1,0
2.37,0.0161328,0.328622,0.151757,1,0,1,0
2.38,0.0971914,0.305773,0.138263,1,0,1,0
2.39,0.0562109,0.280117,0.122058,1,0,1,0
2.4,0.176754,0.260597,0.110541,1,0,1,0
2.41,0.0934883,0.233958,0.090867,1,0,1,0
2.42,0.0517266,0.207746,0.0768368,1,0,1,0
2.43,0.000371094,0.210887,0.0805543,1,0,1,0
2.44,0.0596875,0.204433,0.0739765,1,0,1,0
2.45,0.0585469,0.183398,0.0632212,1,0,1,0
2.46,0.0186055,0.179767,0.0615184,16778.2,0,-13572.1,0
2.47,0.0184414,0.164289,0.0525476,16778.2,0,-5183.44,0
2.48,0.0247773,0.156313,0.0486004,100664,0,-74103.1,5.82077e-13
2.49,0.0432578,0.147382,0.0437785,100664,0,-78217.5,5.82077e-13
2.5,0.00901953,0.14115,0.041606,687867,0,-366430,-2.09548e-11
2.51,0.0252539,0.135397,0.0368722,1.04019e+06,0,-915427,-1.83181e-11
2.52,0.0310078,0.141174,0.0407514,201328,0,-158382,-2.91038e-13
2.53,0.0134297,0.122382,0.032988,2.96957e+06,0,-1.7575e+06,3.43425e-11
2.54,0.0295898,0.105892,0.0258881,1.52505e+07,0,-1.00792e+07,7.6252e-10
2.55,0.00871875,0.116917,0.0295095,4.86539e+06,0,-2.67585e+06,1.65892e-10
2.56,0.0256641,0.101219,0.0234014,1.71128e+07,0,-9.11424e+06,1.81608e-10
2.57,0.0176875,0.0925195,0.0198039,3.36048e+07,0,-1.81683e+07,3.74625e-09
2.58,0.0025,0.0975563,0.0227409,1.88576e+07,0,-7.67802e+06,1.72004e-10
2.59,0.00696875,0.0994387,0.022833,1.88073e+07,0,-8.88905e+06,3.79514e-10
2.6,0.0223516,0.0881677,0.018424,4.65903e+07,0,-2.53346e+07,-1.32713e-10
