temperature,result
1,19.6615
1.1,14.182
1.2,9.62216
1.3,7.92045
1.4,5.69747
1.5,4.05338
1.6,3.32017
1.7,2.75421
1.8,2.22079
1.9,1.45384
2,1.17449
2.1,0.83859
2.2,0.594464
2.3,0.465764
2.4,0.336354
2.5,0.249028
2.6,0.206401
2.7,0.167672
2.8,0.144124
2.9,0.126969
