temperature,avg_mag,avg_mag2,avg_mag4,chi0_re,chi0_im,chiq_re,chiq_im
1.4,0.959715,0.921416,0.850324,368.567,0,0.140099,2.04371e-14
1.41,0.957379,0.91693,0.842042,366.772,0,0.149572,2.68197e-15
1.42,0.956281,0.914857,0.838334,365.943,0,0.157782,-6.44929e-15
1.43,0.954461,0.911413,0.832162,364.565,0,0.1769,-1.22637e-14
1.44,0.953094,0.908812,0.82745,363.525,0,0.186323,-6.5028e-15
1.45,0.95152,0.905864,0.82226,362.346,0,0.195967,-2.63213e-14
1.46,0.950559,0.904053,0.819054,361.621,0,0.19915,-1.36643e-14
1.47,0.949637,0.90231,0.815919,360.924,0,0.198456,-1.93233e-14
1.48,0.948137,0.899412,0.81053,359.765,0,0.198604,-2.84026e-14
1.49,0.946035,0.895556,0.804018,358.222,0,0.222166,-9.7693e-15
1.5,0.944887,0.893378,0.800089,357.351,0,0.235091,-2.02782e-14
1.51,0.943246,0.890302,0.794683,356.121,0,0.230594,-1.89211e-14
1.52,0.941652,0.887337,0.789533,354.935,0,0.253005,-1.39804e-14
1.53,0.940336,0.884853,0.785112,353.941,0,0.258429,-2.03982e-14
1.54,0.938367,0.881269,0.779125,352.507,0,0.286542,-1.08014e-15
1.55,0.936379,0.877557,0.772649,351.023,0,0.312169,4.97136e-15
1.56,0.934504,0.873998,0.766265,349.599,0,0.320321,4.61431e-15
1.57,0.931965,0.869483,0.759064,347.793,0,0.334804,-4.70468e-15
1.58,0.930785,0.867283,0.7552,346.913,0,0.318409,1.29208e-15
1.59,0.928812,0.863582,0.748718,345.433,0,0.358344,2.28112e-14
1.6,0.926719,0.859951,0.743154,343.981,0,0.40848,2.09773e-14
1.61,0.925211,0.856985,0.737627,342.794,0,0.375189,2.10326e-14
1.62,0.922422,0.851863,0.728942,340.745,0,0.441845,4.56033e-14
1.63,0.919992,0.847486,0.721809,338.994,0,0.416088,4.2198e-14
1.64,0.916961,0.8421,0.713216,336.84,0,0.4463,1.82984e-14
1.65,0.916098,0.840429,0.710147,336.172,0,0.416924,-4.78217e-15
1.66,0.911828,0.832755,0.69771,333.102,0,0.49096,-1.86628e-15
1.67,0.910613,0.830811,0.695182,332.325,0,0.546237,1.51493e-14
1.68,0.906551,0.82323,0.682054,329.292,0,0.575395,1.41277e-14
1.69,0.904328,0.819424,0.676479,327.77,0,0.562728,8.72835e-15
1.7,0.902695,0.816497,0.671728,326.599,0,0.592349,8.60589e-15
1.71,0.899836,0.811523,0.664086,324.609,0,0.629243,-1.11854e-14
1.72,0.898316,0.808793,0.659666,323.517,0,0.646929,-4.8721e-15
1.73,0.891961,0.797674,0.642451,319.07,0,0.74171,-5.31253e-15
1.74,0.889176,0.792897,0.635281,317.159,0,0.780684,-1.10656e-14
1.75,0.879051,0.776334,0.612219,310.533,0,1.12985,-2.63126e-14
1.76,0.878914,0.776472,0.612785,310.589,0,1.06632,-1.648e-14
1.77,0.877477,0.772812,0.605191,309.125,0,0.9899,-1.93645e-15
1.78,0.871344,0.762876,0.591667,305.15,0,1.16964,-8.61533e-16
1.79,0.865309,0.753295,0.578614,301.318,0,1.22697,-8.47022e-15
1.8,0.866152,0.753784,0.577709,301.514,0,1.14729,-3.66374e-15
1.81,0.861734,0.746199,0.566412,298.48,0,1.19786,3.57392e-15
1.82,0.845785,0.725083,0.54212,290.033,0,1.50811,-3.72558e-15
1.83,0.848141,0.724829,0.538498,289.932,0,1.54349,-2.3761e-15
1.84,0.382172,0.707037,0.51882,282.815,0,1.84084,-1.53599e-15
1.85,0.0590742,0.69086,0.498522,276.344,0,2.22908,-1.64313e-16
1.86,0.829762,0.697192,0.502716,278.877,0,2.22189,-6.90681e-15
1.87,0.811898,0.672848,0.476731,269.139,0,2.97387,1.33029e-14
1.88,0.810172,0.666681,0.465153,266.673,0,2.65868,2.63933e-15
1.89,0.468355,0.645453,0.442644,258.181,0,3.3099,1.67311e-16
1.9,0.653773,0.628366,0.42864,251.346,0,3.96628,1.41986e-15
1.91,0.0255352,0.592756,0.39471,237.102,0,4.49315,-1.01249e-14
1.92,0.767758,0.613709,0.408495,245.484,0,4.02004,2.76312e-15
1.93,0.584234,0.605725,0.39722,242.29,0,3.47201,-6.71918e-15
1.94,0.308289,0.568153,0.363811,227.261,0,4.84303,2.2351e-15
1.95,0.0642891,0.543719,0.341763,217.487,0,5.10999,3.24174e-15
1.96,0.293363,0.553317,0.345905,221.327,0,5.08441,8.6936e-15
1.97,0.133035,0.540404,0.331311,216.162,0,5.30846,-1.20293e-15
1.98,0.400871,0.523058,0.314704,209.223,0,5.47728,7.41185e-16
1.99,0.298902,0.464853,0.272537,185.941,0,7.97424,1.06115e-14
2,0.247754,0.502057,0.292462,200.823,0,5.34158,3.71181e-15
2.01,0.21991,0.468538,0.266119,187.415,0,6.86568,-8.59102e-15
2.02,0.535789,0.398514,0.210428,159.406,0,8.673,-4.4672e-15
2.03,0.253504,0.373532,0.190636,149.413,0,10.2549,-5.7393e-15
2.04,0.183645,0.416561,0.222816,166.624,0,8.4949,6.63913e-17
2.05,0.229578,0.3724,0.186537,148.96,0,9.37161,5.23859e-15
2.06,0.238664,0.356111,0.176549,142.444,0,9.75174,1.05284e-14
2.07,0.171379,0.353093,0.174624,141.237,0,9.51382,-6.85763e-15
2.08,0.0512344,0.289596,0.131684,115.838,0,12.18,7.38665e-15
2.09,0.0346875,0.300632,0.139025,120.253,0,10.9849,-1.02727e-14
2.1,0.0822578,0.274894,0.11891,109.958,0,12.0852,-9.44606e-15
2.11,0.00754297,0.278909,0.121398,111.564,0,10.7117,1.99996e-15
2.12,0.0186797,0.24162,0.100003,96.6479,0,12.5775,2.33147e-17
2.13,0.00572266,0.209063,0.0819201,83.6251,0,13.8169,-4.61448e-15
2.14,0.00734766,0.210031,0.0799071,84.0123,0,12.7748,5.59192e-15
2.15,0.0241953,0.230161,0.087986,92.0645,0,12.3582,8.22908e-15
2.16,0.103313,0.193259,0.0686748,77.3035,0,13.4593,6.4504e-17
2.17,0.0533945,0.202674,0.0735252,81.0698,0,12.5229,-1.48398e-15
2.18,0.0673945,0.166671,0.055675,66.6683,0,14.4823,1.12885e-14
2.19,0.0487695,0.156226,0.0475035,62.4903,0,13.6313,-1.21499e-14
2.2,0.0132969,0.172635,0.0583817,69.0541,0,12.4943,9.31794e-15
2.21,0.0222266,0.148324,0.0455033,59.3296,0,14.0668,3.77587e-15
2.22,0.0122461,0.146835,0.0432909,58.7341,0,13.0109,4.84646e-15
2.23,0.0360352,0.13641,0.0397362,54.5642,0,13.6862,2.05153e-15
2.24,0.0605664,0.132232,0.0376005,52.8928,0,12.9246,2.95997e-15
2.25,0.0128906,0.130557,0.0351833,52.2228,0,13.4115,-1.10622e-14
2.26,0.025082,0.119241,0.0315413,47.6965,0,13.956,-4.9597e-15
2.27,0.00040625,0.107567,0.0267681,43.0267,0,13.0714,1.21688e-14
2.28,0.0304141,0.113078,0.0288565,45.2313,0,12.9791,-8.88678e-15
2.29,0.0305547,0.103194,0.024671,41.2775,0,13.7441,-7.10126e-15
2.3,0.0261328,0.0898371,0.0197771,35.9348,0,13.7681,-9.01212e-15
2.31,0.0107812,0.086785,0.0188358,34.714,0,13.2458,1.43807e-15
2.32,0.000292969,0.098441,0.0225782,39.3764,0,12.6085,-4.19276e-15
2.33,0.0311094,0.0920329,0.0205097,36.8131,0,12.3948,-1.68676e-15
2.34,0.0168086,0.0812976,0.0164134,32.519,0,12.2767,1.95605e-15
2.35,0.0211836,0.0787308,0.0155108,31.4923,0,12.0056,-9.29257e-17
2.36,0.0177578,0.0736066,0.013122,29.4426,0,12.6033,1.58895e-15
2.37,0.00040625,0.0732402,0.0128249,29.2961,0,12.2738,1.60671e-15
2.38,0.0144219,0.0680467,0.0111691,27.2187,0,12.7006,-4.45755e-15
2.39,0.00139844,0.0686523,0.0119567,27.4609,0,12.3473,-6.19615e-16
2.4,0.00408203,0.0681845,0.0114862,27.2738,0,12.172,6.98885e-17
