temperature,avg_mag,avg_mag2,avg_mag4,chi0_re,chi0_im,chiq_re,chiq_im
1.4,0.958039,0.918202,0.844397,402654,0,129541,1.16415e-11
1.41,0.957523,0.917245,0.84275,117442,0,32734.3,2.32831e-12
1.42,0.956813,0.915887,0.840273,6.61022e+06,0,-46305.4,-1.3737e-10
1.43,0.955098,0.912607,0.834269,6.22435e+06,0,68413.2,-1.18744e-10
1.44,0.953441,0.909473,0.828649,3.42255e+06,0,171470,-2.77068e-10
1.45,0.952223,0.907247,0.824903,83887.1,0,59059.3,0
1.46,0.951195,0.905264,0.821239,83887.1,0,59059.3,0
1.47,0.949746,0.902561,0.816516,83887.1,0,37918.7,0
1.48,0.948359,0.89991,0.811681,6.54311e+06,0,7165.72,1.16415e-11
1.49,0.946855,0.897074,0.806627,6.2579e+06,0,56820.4,1.16415e-11
1.5,0.945246,0.894074,0.801404,6.52634e+06,0,-43101.2,-1.3737e-10
1.51,0.943414,0.890644,0.795377,6.66056e+06,0,-38737.9,1.16415e-11
1.52,0.941988,0.88796,0.79062,6.66056e+06,0,-50330.7,1.16415e-11
1.53,0.940105,0.88445,0.784485,385877,0,-31822.1,-1.62981e-11
1.54,0.938102,0.880723,0.778026,385877,0,-20961.3,-8.14907e-12
1.55,0.937387,0.879349,0.775496,100664,0,67850.6,5.82077e-13
1.56,0.93452,0.874075,0.766541,419431,0,75015.3,3.49246e-12
1.57,0.933125,0.871557,0.762411,6.66056e+06,0,-34374.6,3.0268e-11
1.58,0.930375,0.866437,0.753527,6.627e+06,0,-36757.6,1.16415e-11
1.59,0.92907,0.864031,0.74942,2.01327e+06,0,-220805,1.40863e-10
1.6,0.927148,0.860467,0.743268,2.60047e+06,0,150075,-1.0943e-10
1.61,0.925246,0.857059,0.737767,268436,0,60387.9,-2.32831e-12
1.62,0.923738,0.854263,0.732968,6.627e+06,0,-43922.3,-1.3737e-10
1.63,0.920574,0.848633,0.723977,1.49317e+06,0,-183767,-7.33417e-11
1.64,0.917742,0.843433,0.715204,5.68748e+06,0,32998.8,-1.00117e-10
1.65,0.915555,0.839803,0.709966,5.83847e+06,0,-145769,2.07219e-10
1.66,0.914012,0.836661,0.704003,6.4089e+06,0,-145889,-1.18744e-10
1.67,0.910164,0.829726,0.692667,989857,0,-26041,-1.5134e-11
1.68,0.906359,0.823329,0.683335,6.50956e+06,0,-98617.3,-1.3737e-10
1.69,0.90318,0.817359,0.673111,2.0636e+06,0,-277006,1.16415e-11
1.7,0.902207,0.815635,0.67038,6.30823e+06,0,31743.7,1.16415e-11
1.71,0.898035,0.808637,0.660311,6.47601e+06,0,-89069.5,3.0268e-11
1.72,0.896371,0.805284,0.653999,6.09013e+06,0,57924.5,3.0268e-11
1.73,0.888609,0.79249,0.635669,6.24112e+06,0,-186046,3.0268e-11
1.74,0.885977,0.789271,0.63182,5.68748e+06,0,-83830,-2.30502e-10
1.75,0.880953,0.7795,0.616809,6.627e+06,0,-8387.61,-1.3737e-10
1.76,0.878105,0.774771,0.610133,3.6071e+06,0,14136.6,-1.83936e-10
1.77,0.875473,0.769948,0.602472,5.78814e+06,0,-103319,3.0268e-11
1.78,0.875223,0.768713,0.598602,889193,0,-75237.9,9.31323e-12
1.79,0.864395,0.753482,0.580811,6.27468e+06,0,-16462.6,4.88944e-11
1.8,0.867586,0.755673,0.579203,6.627e+06,0,12752.9,-1.18744e-10
1.81,0.857711,0.740025,0.558524,6.57667e+06,0,-13885.7,-1.18744e-10
1.82,0.854078,0.733333,0.548066,4.9325e+06,0,-7049.32,-6.28643e-11
1.83,0.418617,0.71126,0.523547,5.8888e+06,0,4016.63,-1.00117e-10
1.84,0.835367,0.706616,0.517542,3.0199e+06,0,-189480,-2.79397e-11
1.85,0.491738,0.699697,0.506606,4.79828e+06,0,-54063.3,3.0268e-11
1.86,0.476137,0.685972,0.492417,3.35544e+06,0,127471,-6.28643e-11
1.87,0.353441,0.684556,0.489254,6.05658e+06,0,-64660.1,1.97906e-10
1.88,0.805496,0.665263,0.466806,6.59345e+06,0,34947.8,-1.00117e-10
1.89,0.0768008,0.671522,0.470038,6.778e+06,0,74596.9,4.88944e-11
1.9,0.804715,0.658441,0.453412,469763,0,161712,9.31323e-12
1.91,0.798789,0.647497,0.438542,6.02302e+06,0,116530,4.88944e-11
1.92,0.21,0.595606,0.389805,5.78814e+06,0,296956,1.234e-10
1.93,0.767875,0.608926,0.399156,6.74444e+06,0,138277,4.88944e-11
1.94,0.613891,0.596124,0.38647,6.00624e+06,0,145737,4.95929e-10
1.95,0.467176,0.583956,0.374196,6.30823e+06,0,142551,-1.00117e-10
1.96,0.541316,0.53381,0.329793,3.42255e+06,0,175574,3.0268e-11
1.97,0.0399687,0.495904,0.3015,6.42567e+06,0,82085,5.14556e-10
1.98,0.679242,0.535848,0.323105,6.37534e+06,0,61371.6,2.09548e-11
1.99,0.267094,0.504791,0.299194,1.72805e+06,0,88035.5,5.82077e-11
2,0.0437305,0.481235,0.277226,5.15061e+06,0,-331962,2.09548e-11
2.01,0.119305,0.451953,0.25379,3.85876e+06,0,-205873,5.55301e-10
2.02,0.451348,0.450616,0.250897,4.11042e+06,0,213008,-2.54367e-10
2.03,0.0360586,0.419379,0.22373,4.36208e+06,0,896609,1.6531e-10
2.04,0.00271875,0.381351,0.198629,2.73469e+06,0,162398,1.3737e-10
2.05,0.0857656,0.345337,0.170223,6.54311e+06,0,1.32819e+06,-2.21189e-10
2.06,0.00280078,0.346263,0.171054,7.04643e+06,0,1.00996e+06,7.0082e-10
2.07,0.275734,0.349547,0.172383,3.37222e+06,0,353708,1.36788e-10
2.08,0.0786758,0.297155,0.138437,9.19391e+06,0,939460,-2.6077e-10
2.09,0.0719531,0.308086,0.139394,3.69099e+06,0,1.81146e+06,1.28057e-10
2.1,0.0136133,0.304027,0.137762,4.86539e+06,0,1.6922e+06,-1.33878e-10
2.11,0.0132578,0.253188,0.103514,6.61022e+06,0,2.79122e+06,-1.27475e-10
2.12,0.00749219,0.245509,0.101794,9.89856e+06,0,2.34152e+06,1.00117e-10
2.13,0.0429219,0.222136,0.0897381,8.3215e+06,0,3.37852e+06,4.59258e-10
2.14,0.0546523,0.225692,0.088616,1.05361e+07,0,3.33717e+06,1.01281e-10
2.15,0.00249219,0.232969,0.0911832,8.22084e+06,0,1.73504e+06,4.65661e-11
2.16,0.0628477,0.192183,0.0687648,1.26836e+07,0,2.8673e+06,-9.09786e-10
2.17,0.0756133,0.192179,0.0693244,1.37238e+07,0,3.61651e+06,-1.04832e-09
2.18,0.028043,0.173014,0.0601178,1.79013e+07,0,3.66031e+06,-4.36557e-11
2.19,0.062707,0.163418,0.0534681,1.95455e+07,0,2.39893e+06,-1.49128e-09
2.2,0.00499609,0.172017,0.0576525,1.49988e+07,0,3.81316e+06,-8.57981e-10
2.21,0.0395117,0.150377,0.0462336,2.06192e+07,0,2.17182e+06,-1.32655e-09
2.22,0.00315625,0.141892,0.0412225,2.08373e+07,0,2.32167e+06,-1.1723e-09
2.23,0.0349414,0.147066,0.0440723,2.21459e+07,0,2.64428e+06,-6.37956e-10
2.24,0.000695313,0.137827,0.0389999,2.33203e+07,0,2.99236e+06,-2.03727e-11
2.25,0.00514063,0.126443,0.0338207,3.20445e+07,0,-3.36417e+06,-1.99623e-09
2.26,0.0132109,0.130732,0.0346219,3.00144e+07,0,1.81287e+06,-2.70898e-09
2.27,0.0167461,0.106101,0.0249289,8.02286e+07,0,-1.33321e+07,-7.10948e-09
2.28,0.0232109,0.109715,0.0268449,4.46609e+07,0,-1.15575e+06,1.312e-09
2.29,0.0343672,0.110256,0.0263597,4.6389e+07,0,-4.97139e+06,1.07335e-09
2.3,0.0176797,0.092365,0.0204424,1.10092e+08,0,-2.16359e+07,3.37255e-09
2.31,0.0148906,0.0940556,0.0197594,8.64362e+07,0,-1.96388e+07,-9.95875e-09
2.32,0.0144453,0.090858,0.0204126,9.3986e+07,0,-1.69466e+07,5.49946e-09
2.33,0.00314453,0.086549,0.0176527,9.35833e+07,0,-1.26716e+07,-3.3516e-09
2.34,0.000773438,0.0822131,0.0157466,1.1026e+08,0,-2.75724e+07,4.67582e-09
2.35,0.0104688,0.0758097,0.0145083,1.67403e+08,0,-4.17812e+07,-7.27072e-09
2.36,0.0125117,0.0787825,0.0150738,1.19034e+08,0,-2.81005e+07,5.41157e-09
2.37,0.00821875,0.0763613,0.0149663,1.41868e+08,0,-3.12793e+07,-2.14967e-08
2.38,0.035875,0.0746156,0.0136596,1.54115e+08,0,-2.92862e+07,1.75787e-09
2.39,0.00763672,0.0670801,0.0116322,2.00085e+08,0,-4.97295e+07,1.27463e-08
2.4,0.00742969,0.0698194,0.012621,1.71446e+08,0,-3.63864e+07,2.42121e-08
