temperature,avg_mag,avg_mag2,avg_mag4,chi0_re,chi0_im,chiq_re,chiq_im
1.4,0.958578,0.919234,0.846286,117442,0,64646.4,1.16415e-12
1.41,0.957031,0.916305,0.841033,6.47601e+06,0,-23184.5,-1.3737e-10
1.42,0.956117,0.914567,0.837883,83887.1,0,40301.8,0
1.43,0.954645,0.911738,0.832673,6.69411e+06,0,-5183.45,1.16415e-11
1.44,0.953918,0.910355,0.830158,100664,0,26728.7,0
1.45,0.952434,0.907631,0.825567,301991,0,-40121.6,0
1.46,0.951516,0.905853,0.822243,167773,0,26728.7,-2.32831e-12
1.47,0.949332,0.901727,0.814861,2.53336e+06,0,-45265.1,2.09548e-11
1.48,0.947297,0.897962,0.808379,6.12368e+06,0,-53728.7,1.7928e-10
1.49,0.946637,0.896637,0.805769,6.32501e+06,0,-40155.6,-1.3737e-10
1.5,0.944719,0.89305,0.799466,6.55989e+06,0,-30349.3,1.16415e-11
1.51,0.943309,0.89048,0.79519,6.57667e+06,0,-98617.3,3.0268e-11
1.52,0.942363,0.888636,0.791706,2.68436e+06,0,217095,-2.30502e-10
1.53,0.939988,0.884237,0.784138,6.57667e+06,0,-10940.1,1.16415e-11
1.54,0.938059,0.880706,0.778199,6.45923e+06,0,-58405.6,-1.3737e-10
1.55,0.93773,0.880084,0.777085,6.54311e+06,0,-54694,-1.3737e-10
1.56,0.935285,0.875471,0.768859,704644,0,27798.8,-1.16415e-12
1.57,0.93307,0.87148,0.762325,6.64378e+06,0,-48599.3,1.16415e-11
1.58,0.93168,0.868869,0.757771,1.14085e+06,0,224358,-7.21775e-11
1.59,0.928883,0.863841,0.749582,4.49629e+06,0,-115563,9.54606e-11
1.6,0.927695,0.861545,0.745304,6.2579e+06,0,-30662.9,1.16415e-11
1.61,0.924859,0.856335,0.736514,6.67733e+06,0,-33553.4,1.16415e-11
1.62,0.922949,0.852766,0.730285,6.42567e+06,0,-88706.2,1.16415e-11
1.63,0.919895,0.847337,0.721639,6.52634e+06,0,-48285.6,-1.3737e-10
1.64,0.91757,0.843153,0.714812,6.35857e+06,0,-144013,1.16415e-11
1.65,0.915055,0.838607,0.707329,1.37573e+06,0,-86297.9,8.14907e-11
1.66,0.912805,0.834631,0.70109,335545,0,31769,0
1.67,0.909555,0.828707,0.691211,6.4089e+06,0,-82242.8,1.16415e-11
1.68,0.907434,0.82488,0.684988,2.38237e+06,0,-51714.3,-3.88827e-10
1.69,0.903941,0.81886,0.675783,6.59345e+06,0,-88248.4,-1.3737e-10
1.7,0.901941,0.815378,0.670389,6.54311e+06,0,18499.9,-1.3737e-10
1.71,0.898734,0.809479,0.660667,872416,0,-83035.9,-1.02445e-10
1.72,0.895121,0.803249,0.651256,788530,0,129138,1.16415e-11
1.73,0.890836,0.795705,0.639377,6.2579e+06,0,-55773.7,-1.18744e-10
1.74,0.886289,0.788487,0.629994,218105,0,69830.9,-1.74623e-12
1.75,0.881301,0.780451,0.61861,2.85213e+06,0,-82501.4,1.21072e-10
1.76,0.88066,0.778632,0.61457,3.40578e+06,0,-83925.1,-1.6531e-10
1.77,0.873824,0.76716,0.597934,83887.1,0,81423.7,0
1.78,0.874523,0.767535,0.596893,6.29146e+06,0,43665.7,4.88944e-11
1.79,0.862504,0.747921,0.569848,4.66407e+06,0,304806,-7.21775e-11
1.8,0.859652,0.743603,0.564466,6.74444e+06,0,42684.8,4.88944e-11
1.81,0.0940156,0.693478,0.517081,5.97269e+06,0,30479.8,4.88944e-11
1.82,0.844648,0.720547,0.534965,5.78814e+06,0,123009,-1.18744e-10
1.83,0.846461,0.721446,0.53283,3.0199e+06,0,-133884,3.0268e-11
1.84,0.0407734,0.715247,0.527445,1.20796e+06,0,116315,-2.67755e-11
1.85,0.545426,0.6997,0.506869,5.5197e+06,0,136820,3.46918e-10
1.86,0.82748,0.692787,0.497591,721421,0,122804,-9.31323e-12
1.87,0.81702,0.681475,0.487531,1.3254e+06,0,-13153.7,-1.46683e-10
1.88,0.425164,0.657512,0.456651,6.4089e+06,0,-19792.5,3.46918e-10
1.89,0.813391,0.669539,0.465648,469763,0,265514,6.98492e-12
1.9,0.0451797,0.634108,0.429181,1.82872e+06,0,-219611,-1.11759e-10
1.91,0.347102,0.643689,0.436867,3.28834e+06,0,-59534.4,-8.14907e-11
1.92,0.370574,0.615351,0.411394,3.35544e+06,0,24539.5,-1.93249e-10
1.93,0.205273,0.59287,0.384172,5.93914e+06,0,212517,5.82077e-11
1.94,0.466039,0.557108,0.355934,5.97269e+06,0,-21613,2.09548e-11
1.95,0.367906,0.561425,0.352544,4.39563e+06,0,-429305,-2.70084e-10
1.96,0.733016,0.560956,0.348684,5.62037e+06,0,813732,2.35159e-10
1.97,0.27884,0.533541,0.326424,2.24815e+06,0,409319,1.33296e-10
1.98,0.50723,0.491914,0.291693,5.46937e+06,0,74114.8,-8.14907e-11
1.99,0.067293,0.484598,0.283456,872416,0,550252,1.39698e-11
2,0.0320234,0.472986,0.26902,4.14397e+06,0,-92547,2.35159e-10
2.01,0.24316,0.443255,0.24462,4.07686e+06,0,520187,-1.00117e-10
2.02,0.0668086,0.444218,0.243852,6.74444e+06,0,388148,1.234e-10
2.03,0.15618,0.430664,0.228195,2.23137e+06,0,710323,-1.57161e-11
2.04,0.0292852,0.414677,0.220588,6.34179e+06,0,368729,7.19447e-10
2.05,0.100133,0.37182,0.188312,4.79828e+06,0,975235,2.56114e-11
2.06,0.0238477,0.378326,0.189866,5.40226e+06,0,792875,2.35159e-10
2.07,0.0669766,0.329899,0.155337,5.33516e+06,0,1.0883e+06,1.3737e-10
2.08,0.0246641,0.311741,0.145613,6.24112e+06,0,1.19855e+06,6.35628e-10
2.09,0.00309375,0.289112,0.128311,3.45611e+06,0,2.24803e+06,2.32831e-12
2.1,0.17452,0.294709,0.132674,5.50293e+06,0,1.20839e+06,1.28057e-10
2.11,0.0596133,0.246565,0.101269,7.24776e+06,0,2.68129e+06,3.2247e-10
2.12,0.140023,0.261175,0.107186,7.49942e+06,0,1.59045e+06,3.8126e-10
2.13,0.0307891,0.234593,0.0940053,1.32708e+07,0,2.9856e+06,1.18162e-10
2.14,0.0673555,0.210051,0.0799018,9.29458e+06,0,2.43566e+06,-1.2049e-10
2.15,0.0465352,0.229454,0.0900755,1.33882e+07,0,3.17334e+06,2.16532e-10
2.16,0.0117695,0.203592,0.0741472,1.02341e+07,0,1.86749e+06,-3.89991e-11
2.17,0.0336523,0.189084,0.0661774,1.33379e+07,0,3.50678e+06,-6.12345e-10
2.18,0.075668,0.200563,0.0705821,1.04522e+07,0,2.05852e+06,1.42027e-10
2.19,0.0430625,0.186348,0.0645341,1.34889e+07,0,3.24622e+06,6.6706e-10
2.2,0.056875,0.142264,0.0420962,3.25478e+07,0,4.72732e+06,1.38418e-09
2.21,0.0146094,0.14108,0.0408482,2.74307e+07,0,583260,2.28581e-09
2.22,0.0293711,0.139617,0.0418573,2.66422e+07,0,1.2301e+06,-1.64146e-10
2.23,0.0477148,0.146912,0.0432548,2.44612e+07,0,181414,9.95351e-11
2.24,0.0177109,0.132761,0.0381156,3.02158e+07,0,161006,-2.54833e-09
2.25,0.0197344,0.114236,0.029451,5.44588e+07,0,-6.57635e+06,5.19271e-09
2.26,0.0196406,0.121814,0.0304143,3.79333e+07,0,863484,-4.98985e-09
2.27,0.0202227,0.107847,0.026687,6.03309e+07,0,-4.32566e+06,3.78233e-09
2.28,0.0279453,0.110573,0.0280194,4.5332e+07,0,-3.59752e+06,-3.08501e-11
2.29,0.00365234,0.111588,0.0274319,4.65232e+07,0,1.75049e+06,8.27131e-10
2.3,0.00611328,0.112745,0.027824,3.743e+07,0,-1.308e+06,-6.30389e-10
2.31,0.00477344,0.0957562,0.0215634,8.3668e+07,0,-1.65472e+07,9.14442e-10
2.32,0.0179063,0.0942629,0.0198528,8.21077e+07,0,-1.37009e+07,7.23521e-09
2.33,0.00040625,0.0865292,0.0179439,9.84151e+07,0,-1.63603e+07,1.23528e-08
2.34,7.8125e-06,0.0837404,0.0175873,1.25913e+08,0,-2.68394e+07,-4.44124e-10
2.35,0.0626719,0.0846269,0.0172286,8.99091e+07,0,-1.4743e+07,2.32016e-09
2.36,0.0206445,0.0760204,0.0137123,1.43898e+08,0,-2.85583e+07,3.19094e-09
2.37,0.022793,0.0783038,0.0151268,1.20108e+08,0,-2.53299e+07,-2.89816e-09
2.38,7.8125e-06,0.0773764,0.0149069,1.35124e+08,0,-2.50884e+07,-4.08269e-09
2.39,0.000738281,0.0723733,0.0125711,1.57018e+08,0,-4.45994e+07,1.09896e-09
2.4,0.00544141,0.0654456,0.0108605,1.97904e+08,0,-4.19955e+07,6.99074e-09
