temperature,result
0.5,0.666667
0.6,0.666667
0.7,0.666666
0.8,0.666664
0.9,0.666658
1,0.666646
1.1,0.666623
1.2,0.666578
1.3,0.666494
1.4,0.666356
1.5,0.666145
1.6,0.665773
1.7,0.665144
1.8,0.663989
1.9,0.661727
2,0.657946
2.1,0.648587
2.2,0.632393
2.3,0.601385
2.4,0.554253
2.5,0.490154
2.6,0.419347
2.7,0.358452
2.8,0.29149
2.9,0.250811
