temperature,magnetization
2.5,0.9540973000000001
2.52,0.952582818181818
2.54,0.9509396363636363
2.56,0.9490476923076924
2.58,0.9476485833333333
2.6,0.9461242307692308
2.62,0.9441601428571429
2.64,0.9424506666666668
2.66,0.9403759166666666
2.68,0.9383524666666666
2.7,0.9367816153846155
2.72,0.9345352727272727
2.74,0.9326665833333334
2.76,0.9306541666666667
2.78,0.9286226
2.8,0.9263689230769232
2.82,0.9243131818181817
2.84,0.922088153846154
2.86,0.9197191428571427
2.88,0.9174159230769232
2.9,0.9147622499999998
2.92,0.9127008
2.94,0.9103068181818181
2.96,0.9080408333333333
2.98,0.9053468333333333
3.0,0.902680090909091
3.02,0.8998222
3.04,0.8972429285714284
3.06,0.8949289999999999
3.08,0.891656
3.1,0.8888525833333333
3.12,0.8857307857142857
3.14,0.8831759166666667
3.16,0.8801345454545455
3.18,0.8770245454545456
3.2,0.8737566923076924
3.22,0.87074325
3.24,0.8681568181818182
3.26,0.8639430769230768
3.28,0.8612186923076923
3.3,0.8570878461538461
3.32,0.8539601000000001
3.34,0.8502006428571428
3.36,0.8460994
3.38,0.8430318888888889
3.4,0.838728
3.42,0.8352241538461538
3.44,0.8312847272727274
3.46,0.8273718461538462
3.48,0.8231942142857144
3.5,0.8190879166666666
3.52,0.8145785714285714
3.54,0.8106279999999999
3.56,0.8069844615384617
3.58,0.801516153846154
3.6,0.7956645384615386
3.62,0.7921763076923078
3.64,0.7868211538461538
3.66,0.7832322500000001
3.68,0.7775114166666667
3.7,0.7722066666666666
3.72,0.7673737272727272
3.74,0.7623516153846153
3.76,0.7576989000000001
3.78,0.7506139090909091
3.8,0.7457754999999999
3.82,0.7385059375
3.84,0.7339285833333333
3.86,0.7299576
3.88,0.7223144545454545
3.9,0.71564475
3.92,0.7073889999999999
3.94,0.7030595999999999
3.96,0.6964067500000001
3.98,0.6879259
4.0,0.6807745
4.02,0.6735398181818182
4.04,0.6649230714285715
4.06,0.6597350000000001
4.08,0.6487587692307692
4.1,0.6418208181818182
4.12,0.6325497857142858
4.14,0.6246127692307692
4.16,0.61608075
4.18,0.6072124166666668
4.2,0.5942619166666666
4.22,0.5832696923076924
4.24,0.5789226428571429
4.26,0.5726115833333334
4.28,0.54189075
4.3,0.5466196875000001
4.32,0.5329541333333333
4.34,0.5161111052631577
4.36,0.48185625
4.38,0.4773499230769231
4.4,0.43178830769230775
4.42,0.29055083333333337
4.44,0.33579814285714293
4.46,0.2447653
4.48,0.25090918181818184
4.5,0.2338203
4.52,0.21046076923076928
4.54,0.1385052
4.56,0.1926470909090909
4.58,0.15060422222222222
4.6,0.11829793
4.62,0.13618197272727273
4.64,0.12857300000000002
4.66,0.11585416
4.68,0.10665406923076923
4.7,0.07629597500000002
4.72,0.10349544166666667
4.74,0.08124010714285713
4.76,0.07947206923076923
4.78,0.05166392142857144
4.8,0.050793
4.82,0.06612367000000001
4.84,0.06121243636363636
4.86,0.06746089230769231
4.88,0.04627624166666667
4.9,0.053028207142857144
4.92,0.043169160000000005
4.94,0.041179858333333326
4.96,0.05004636363636363
4.98,0.03682666666666667
5.0,0.03143348181818181
5.02,0.03243605454545455
5.04,0.03426094444444444
5.06,0.03027544545454546
5.08,0.03081872307692308
5.1,0.029187427272727273
5.12,0.018626125000000004
5.14,0.027141209090909092
5.16,0.026485446666666673
5.18,0.021319644444444445
5.2,0.015922216666666666
5.22,0.013926424285714284
5.24,0.022194725000000002
5.26,0.016449574999999998
5.28,0.012819115333333334
5.3,0.0197718
5.32,0.01720014166666667
5.34,0.01931016363636364
5.36,0.015156658333333335
5.38,0.010132503333333332
5.4,0.011240331333333332
5.42,0.010795288333333333
5.44,0.018323781818181818
5.46,0.011972443846153848
5.48,0.01619375
5.5,0.015318466666666667
5.52,0.010798320833333333
5.54,0.011524093636363636
5.56,0.012727007000000002
5.58,0.012511979090909092
5.6,0.008525217333333335
5.62,0.0097625
5.64,0.010318487272727273
5.66,0.007328194166666666
5.68,0.009108076923076924
5.7,0.008771938333333333
5.72,0.008272571818181819
5.74,0.007999558
5.76,0.008128217333333333
5.78,0.009226214545454546
5.8,0.008089499000000002
5.82,0.005827890000000001
5.84,0.008588191666666667
5.86,0.006827572727272727
5.88,0.007128168
5.9,0.008875510769230769
5.92,0.006707501
5.94,0.007118334166666667
5.96,0.006356805
5.98,0.008408029999999999
6.0,0.00528708375
6.02,0.0054080299999999994
6.04,0.007913886666666667
6.06,0.007208471666666665
6.08,0.006220641538461538
6.1,0.00713000090909091
6.12,0.005955607272727273
6.14,0.004646514545454545
6.16,0.005249581666666667
6.18,0.007496481111111112
6.2,0.005658702222222222
6.22,0.005299444166666667
6.24,0.004104242727272727
6.26,0.005229999999999999
6.28,0.005401111666666666
6.3,0.005102834
6.32,0.00458583357142857
6.34,0.005248333
6.36,0.004819232307692307
6.38,0.003851281538461539
6.4,0.0034946414285714285
6.42,0.005636666666666667
6.44,0.004207878181818182
6.46,0.0038259725
6.48,0.004689028333333334
6.5,0.0051706415384615385
6.52,0.0033406673333333334
6.54,0.004856786428571429
6.56,0.004806818181818182
6.58,0.0042213627272727275
6.6,0.005770168000000001
6.62,0.003667084999999999
6.64,0.003929881428571428
6.66,0.004763193333333333
6.68,0.002918667
6.7,0.003944523571428571
6.72,0.0045537192307692305
6.74,0.0032809528571428573
6.76,0.004264721666666666
6.78,0.0030004158333333327
6.8,0.004565694166666667
6.82,0.003284997777777778
6.84,0.0046871659999999996
6.86,0.0032884623076923076
6.88,0.003945768461538462
6.9,0.003483451428571429
6.92,0.004842879090909091
6.94,0.004613180909090909
6.96,0.004207592222222222
6.98,0.00313985
7.0,0.0029919230769230773
7.02,0.002738610833333333
7.04,0.003465555
7.06,0.0034000000000000002
7.08,0.004086666363636363
7.1,0.002561499
7.12,0.004650555000000001
7.14,0.0033269223076923073
7.16,0.002927436153846154
7.18,0.0026791015384615385
7.2,0.0031578199999999996
7.22,0.003041819090909091
7.24,0.00340217923076923
7.26,0.002105667
7.28,0.0031598814285714286
7.3,0.0029187881818181823
7.32,0.0029872224999999996
7.34,0.003005237857142857
7.36,0.002297308461538461
7.38,0.0028682046153846153
7.4,0.002846388333333333
7.42,0.002913485454545454
7.44,0.0033491030769230764
7.46,0.0029658961538461537
7.48,0.0030980949999999995
7.5,0.0023290744444444443
7.52,0.0038108316666666665
7.54,0.003203334
7.56,0.003255555833333333
7.58,0.001808788181818182
7.6,0.0025189292857142856
7.62,0.0025951292307692313
7.64,0.002479103076923077
7.66,0.0030525
7.68,0.002614445
7.7,0.0034321784615384617
7.72,0.002726665833333333
7.74,0.0034374353846153846
7.76,0.0025041674999999996
7.78,0.00236788
7.8,0.00293091
7.82,0.0026189381818181815
7.84,0.0025429484615384617
7.86,0.0031292427272727272
7.88,0.0030589390909090907
7.9,0.0034591658333333335
7.92,0.002461410769230769
7.94,0.002536249166666666
7.96,0.002998333076923077
7.98,0.0022805558333333334
8.0,0.002317778333333333
8.02,0.00246218076923077
8.04,0.001926666923076923
8.06,0.0018669441666666663
8.08,0.0026680309090909094
8.1,0.002129230769230769
8.12,0.0023500008333333334
8.14,0.0021732053846153848
8.16,0.0026056045454545453
8.18,0.0023356670000000005
8.2,0.003445454545454545
8.22,0.001975333
8.24,0.0023365275000000003
8.26,0.0015341657142857144
8.28,0.0015930000000000002
8.3,0.0017770841666666668
8.32,0.0024933325
8.34,0.002512272727272727
8.36,0.0021024245454545456
8.38,0.0021148807142857143
8.4,0.0024893584615384616
8.42,0.0018980541666666665
8.44,0.0019190464285714283
8.46,0.0021384845454545456
8.48,0.0023634716666666666
8.5,0.002450256153846154
